"epsilon","mach_number","pressure","rad_temp","rho","rhoE","rhou","temperature","GlobalNodeId","PedigreeNodeId","Points:0","Points:1","Points:2"
1.6527076912284066704e-05,1.0499761920296240003,0.099160899161103183141,0.18629898304238767803,5.5165852125494225788,0.23984533679335021117,1.0025796270795417353,0.1862982641790875693,1,1,-0.023103788495063781738,0,0
1.6527087355427188886e-05,1.0499733668113773177,0.09916131207055955965,0.1862990124720698415,5.5165979907081066358,0.23984584522679708307,1.0025801778398311104,0.18629860840499753993,2,2,-0.022795738652348518372,0,0
1.6527112384698375855e-05,1.0499709057420052449,0.099161545795860797647,0.18629908300666794818,5.5166047892282303877,0.23984598346141292047,1.002579627162782927,0.18629881792464558776,3,3,-0.022487686946988105774,0,0
1.6527146832843805929e-05,1.0499699473415269324,0.099161730295386607548,0.18629918008431736731,5.5166106547871125443,0.23984626340182843562,1.0025801777206315712,0.18629896646803772997,4,4,-0.022179637104272842407,0,0
1.6527188688334613133e-05,1.049968224393460714,0.099161873785795190406,0.18629929803625869256,5.5166147191989489684,0.23984631147863472167,1.0025796272729161629,0.18629909879148776053,5,5,-0.021871587261557579041,0,0
1.6527237394182192382e-05,1.0499674603777453541,0.099162034448076322168,0.18629943529274189951,5.516619865593070493,0.2398465674993147112,1.0025801776074041438,0.18629922683702224151,6,6,-0.021563535556197166443,0,0
1.6527293174596703525e-05,1.0499656644353225765,0.09916218692028926085,0.18629959248547658945,5.516624199742706125,0.23984662463575964764,1.0025796273857330299,0.18629936692529008857,7,7,-0.021255485713481903076,0,0
1.6527356621885748726e-05,1.0499646778269422498,0.099162374750284595915,0.18629977128346475457,5.5166301712228422716,0.2398469077416218731,1.00258017749584738,0.18629951814761847029,8,8,-0.020947435870766639709,0,0
1.652742862100652882e-05,1.0499625691580019016,0.099162565528085069855,0.18629997418036664536,5.5166356629717565596,0.23984700326088032041,1.0025796274991254364,0.18629969110852365177,9,9,-0.020639384165406227112,0,0
1.6527510216168870785e-05,1.049961196053384116,0.099162800574454465496,0.18630020411856276774,5.5166430665859156335,0.23984733350034750932,1.0025801773861120481,0.18629988267299399385,10,10,-0.020331334322690963745,0,0
1.6527602666331674477e-05,1.049958638956818513,0.099163046256218981278,0.18630046464552429963,5.5166502185548234038,0.23984748399967700805,1.0025796276130189977,0.18630010271612149064,11,11,-0.020023284479975700378,0,0
1.6527707375977139249e-05,1.0499567487024097368,0.099163344500600728026,0.18630075971870660445,5.5166595382439522766,0.23984787735404364262,1.0025801772790186028,0.18630034830423461423,12,12,-0.019715232774615287781,0,0
1.6527825982125882631e-05,1.0499536059705283364,0.09916366186907225877,0.18630109395072758094,5.5166688586729701882,0.23984809961467989936,1.002579627727938183,0.18630062979531736289,13,13,-0.019407182931900024414,0,0
1.652796030418939824e-05,1.0499510480540281687,0.099164041722678439306,0.18630147246801015415,5.5166806519733899705,0.23984857449470914359,1.0025801771759814685,0.18630094516715614561,14,14,-0.019099131226539611816,0,0
1.6528112442162207885e-05,1.0499471516000871141,0.099164451338149800508,0.18630190118743461536,5.5166927635251612472,0.23984888907499618549,1.0025796278449838894,0.18630130570408307,15,15,-0.01879108138382434845,0,0
1.6528284737338587668e-05,1.0499437366328765453,0.099164935968451717319,0.18630238670557164316,5.516707732030862843,0.23984946864758246998,1.0025801770792730494,0.18630171068960077463,16,16,-0.018483031541109085083,0,0
1.6528479878587952121e-05,1.0499388725583680415,0.099165463995860542168,0.18630293659807592443,5.5167234271339955498,0.23984990170995695857,1.0025796279661498556,0.18630217266556542421,17,17,-0.018174979835748672485,0,0
1.6528700874027639771e-05,1.0499343584199716251,0.099166083022153697635,0.18630355933975054072,5.5167424678626861834,0.23985061559365583594,1.0025801769925331008,0.18630269261479515119,18,18,-0.017866929993033409119,0,0
1.6528951166349010337e-05,1.0499282527443463131,0.099166762977527064815,0.18630426462938445842,5.5167627616284349301,0.23985120065093898378,1.0025796280948948702,0.18630328471154589121,19,19,-0.017558880150318145752,0,0
1.6529234617817050275e-05,1.049922329077652039,0.09916755436875836216,0.18630506334730045914,5.5167870245298509246,0.23985208681375022599,1.0025801769216129422,0.18630395211695544022,20,20,-0.017250828444957733154,0,0
1.6529555636947585606e-05,1.0499146304903759219,0.099168429230544044573,0.18630596791208006713,5.5168132187401175415,0.23985286684028059301,1.0025796282371388646,0.18630471110914265109,21,21,-0.016942778602242469788,0,0
1.6529919180318397597e-05,1.0499068993123006344,0.099169441679180167504,0.1863069922853672622,5.5168441786468083166,0.23985397397345933901,1.0025801768759423638,0.18630556763391534214,22,22,-0.016634728759527206421,0,0
1.653033089377114651e-05,1.0498971572904867156,0.099170566567572338013,0.18630815236936099089,5.5168779429773335821,0.2398550040841666009,1.0025796284029118155,0.18630654067761240333,23,23,-0.016326677054166793823,0,0
1.6530797135539843388e-05,1.0498871082484666495,0.09917186251986102874,0.18630946607149273531,5.5169174914769802953,0.23985639463241248404,1.0025801768707836015,0.18630763974320341259,24,24,-0.016018627211451530457,0,0
1.653132513608188451e-05,1.0498747450654162261,0.099173308125244691302,0.18631095375414996607,5.5169609674634205732,0.23985774551093841378,1.0025796286090875586,0.18630888730230715788,25,25,-0.015710575506091117859,0,0
1.6531923048221846211e-05,1.0498617237598908414,0.099174967662083265973,0.18631263837515388282,5.5170115306031819458,0.23985949955317378834,1.0025801769309103939,0.18631029739980820015,26,26,-0.015402525663375854492,0,0
1.6532600130851192888e-05,1.0498459986393673393,0.099176824637301569387,0.18631454600430999435,5.517067464889349182,0.23986126184372599801,1.0025796288838875192,0.18631189699190234266,27,27,-0.01509447488933801651,0,0
1.6533366833242316043e-05,1.0498291660599465835,0.099178950446115105022,0.18631670605963457366,5.5171321540405946493,0.2398634820648603283,1.0025801770966158433,0.18631370592015877863,28,28,-0.014786425046622753143,0,0
1.653423500926596185e-05,1.0498091292800622032,0.099181335033227541187,0.18631915190919337566,5.5172040691677208812,0.23986577199844713593,1.0025796292743505145,0.18631575690987858818,29,29,-0.014478374272584915161,0,0
1.6535218044811129246e-05,1.049787409881610678,0.099184058776081274189,0.18632192122790561251,5.5172868743737302211,0.23986859005734834094,1.0025801774335838523,0.18631807719695503422,30,30,-0.014170323498547077179,0,0
1.6536331110907096854e-05,1.0497618440394334005,0.099187120012106319566,0.18632505670785470819,5.5173792876449327949,0.23987155665685383488,1.0025796298586182598,0.18632070692574093096,31,31,-0.013862273655831813812,0,0
1.6537591345335814799e-05,1.0497338593152782948,0.099190610478808907691,0.18632860656633670748,5.5174853253554179133,0.23987514133927845261,1.0025801780490362081,0.18632368275879918063,32,32,-0.01355422288179397583,0,0
1.6539018155154427937e-05,1.0497012042111060204,0.099194539419123581303,0.18633262539348613429,5.5176040292278960564,0.23987897564201574041,1.0025796307661711815,0.18632705437665506021,33,33,-0.013246172107756137848,0,0
1.6540633466136985273e-05,1.0496651877780984741,0.099199012959920812582,0.18633717484905884532,5.5177398596140125875,0.23988354329309358182,1.0025801791181958578,0.18633087045094043344,34,34,-0.012938121333718299866,0,0
1.6542462087692899863e-05,1.0496234444361911553,0.099204054476800099249,0.18634232468279970929,5.5178922807777137649,0.2398884901482762344,1.0025796322111353298,0.18633519291114855609,35,35,-0.012630071491003036499,0,0
1.6544532046714996757e-05,1.0495771335944568126,0.099209788342494387159,0.18634815366514786983,5.5180663139949395202,0.23989431801238264574,1.0025801809276415621,0.18634008571466989523,36,36,-0.012322020716965198517,0,0
1.6546875030745677169e-05,1.04952374176568064,0.099216256205387320932,0.18635475082308017303,5.5182619729897535166,0.23990069116005729999,1.0025796345470039395,0.18634562650961822294,37,37,-0.012013969942927360535,0,0
1.65495268260521368e-05,1.0494642391953272753,0.09922360558928539076,0.18636221665812219284,5.5184849890279448204,0.2399081344224785195,1.0025801839462928911,0.18635189868932114376,38,38,-0.011705920100212097168,0,0
1.6552527857967917318e-05,1.0493959212475179044,0.099231901719075393808,0.18637066464788001885,5.5187360881649958344,0.23991633574610746193,1.0025796383564711256,0.18635900004741748348,39,39,-0.011397869326174259186,0,0
1.6555923756332965635e-05,1.0493195189167821013,0.099241321501598797616,0.18638022281257618507,5.5190219015490020738,0.23992584927734589284,1.002580188941570194,0.18636703865749587594,40,40,-0.011089818552136421204,0,0
1.6559766014903484305e-05,1.0492320812754378778,0.099251960519903731361,0.18639103553894670329,5.5193440763068073451,0.23993639335102673327,1.0025796445986570049,0.18637613808907679824,41,41,-0.010781767778098583221,0,0
1.6564112710194692311e-05,1.0491340367311901005,0.099264032969441848286,0.18640326556230352173,5.5197103851741022851,0.23994855940735670963,1.0025801971692482883,0.18638643770272705913,42,42,-0.010473717935383319855,0,0
1.6569029304035252334e-05,1.0490221179687391206,0.09927767344188080656,0.18641709617264803911,5.5201236634330967945,0.23996210473654161488,1.0025796548500327532,0.18639809397517842493,43,43,-0.010165667161345481873,0,0
1.6574589543394111261e-05,1.0488963709592873386,0.099293143429455540949,0.18643273367987581168,5.520593132713067952,0.23997766817444399212,1.0025802106833030525,0.18641128584323435335,44,44,-0.0098576163873076438904,0,0
1.6580876430297409555e-05,1.0487531232678333204,0.099310627531993253547,0.18645041005773929643,5.5211231574564250124,0.23999505685921004861,1.0025796716977588563,0.18642621167417061656,45,45,-0.0095495656132698059082,0,0
1.6587983328705593607e-05,1.0485919381665240735,0.0993304471731065175,0.18647038594980194781,5.5217247982639330317,0.24001496977717598491,1.0025802328405160058,0.18644310032437963476,46,46,-0.0092415157705545425415,0,0
1.6596015121861375875e-05,1.0484086263908509729,0.099352850889809871116,0.18649295378817418167,5.5224043829097286817,0.24003727770635735483,1.0025796993801616708,0.18646220328652121645,47,47,-0.0089334649965167045593,0,0
1.6605089544738371992e-05,1.048202143317480628,0.099378235925454139199,0.18651844136795947549,5.52317530494629505,0.24006275582624891918,1.0025802691198866246,0.1864838121462848719,48,48,-0.0086254142224788665771,0,0
1.6615338536570835835e-05,1.0479676432351288096,0.099406932296861039156,0.18654721543262453576,5.524046406231405193,0.24009135592167332729,1.0025797448258515487,0.18650824543646885023,49,49,-0.0083173643797636032104,0,0
1.6626909798782663703e-05,1.047703318498464542,0.099439432937994051698,0.18657968577978745195,5.5250340366726797825,0.24012394943430720451,1.0025803284480623301,0.18653587317068714979,50,50,-0.0080093136057257652283,0,0
1.6639968323459594467e-05,1.0474034941687482281,0.099476171276301622592,0.18661630921441452191,5.5261502473418202541,0.24016059086151556046,1.0025798193315209605,0.1865670979270303842,51,51,-0.0077012628316879272461,0,0
1.6654698138653966814e-05,1.0470654094645663879,0.099517760593543849734,0.18665759402465689765,5.5274151272153133618,0.24020227281884506954,1.002580425331614622,0.18660238710044452226,52,52,-0.0073932125233113765717,0,0
1.6671303941260872333e-05,1.0466823493250132504,0.099564764863460830657,0.18670410403750800632,5.5288448077592518004,0.24024917936355180692,1.0025799412533429322,0.18664224770615436833,53,53,-0.0070851617492735385895,0,0
1.6690012920731925978e-05,1.0462503705373089602,0.099617947961066974361,0.18675646308255927641,5.5304640921507797202,0.24030245485752424472,1.0025805832616068169,0.18668726690451148409,54,54,-0.006777111440896987915,0,0
1.6711076330275358848e-05,1.0457614655948594962,0.099678037485248824345,0.1868153585963602259,5.5322942728251778277,0.24036244562754027765,1.0025801402850214039,0.18673807992358729124,55,55,-0.0064690606668591499329,0,0
1.6734771155222428237e-05,1.0452102389305497621,0.099745984359740594294,0.18688154531889872301,5.5343660673834751407,0.24043048465766289623,1.0025808400909854701,0.18679541923838904882,56,56,-0.0061610103584825992584,0,0
1.6761401293618016068e-05,1.0445870978049731637,0.099822719226186656938,0.18695584741630663639,5.5367072482852268678,0.24050711948910530324,1.0025804641687998675,0.18686007480457325625,57,57,-0.005852960050106048584,0,0
1.6791298625010328777e-05,1.0438848887447407243,0.099909422780591186641,0.18703916005194251571,5.539355895917577044,0.24059391499224391797,1.0025812563933467203,0.1869329519563687203,58,58,-0.0055449092760682106018,0,0
1.6824823202124058493e-05,1.0430921109223842969,0.10000727395972817957,0.18713244824338851058,5.5423478309974818501,0.24069166457011761939,1.0025809890158394744,0.18701502271694861457,59,59,-0.0052368589676916599274,0,0
1.6862362934783892696e-05,1.0421995304273954375,0.10011773091373994682,0.1872367440191639032,5.5457301851935092429,0.24080221335665433213,1.0025819281367824853,0.1871073918979810069,60,60,-0.0049288081936538219452,0,0
1.6904331767086655514e-05,1.0411934153444815099,0.10024226939040006834,0.18735313909214082462,5.5495486046968682814,0.24092664835853172534,1.0025818346789634461,0.18721123742124581857,61,61,-0.0046207578852772712708,0,0
1.6951166663467427822e-05,1.0400621584174727374,0.10038267325382381479,0.18748277395545737134,5.5538611127175183668,0.24106714412731317099,1.0025830051156334743,0.18732788302254649304,62,62,-0.0043127071112394332886,0,0
1.7003322103855713059e-05,1.0387895433823686187,0.1005407596945061266,0.18762681986215917762,5.5587250007093764737,0.24122512491481257202,1.0025831863968635016,0.1874587239224462798,63,63,-0.0040046568028628826141,0,0
1.7061262295713230269e-05,1.0373614306030354282,0.10071867593394778773,0.18778645440038288505,5.5642108905829283927,0.24140313348195363563,1.0025847157198015669,0.18760530245706749652,64,64,-0.0036966062616556882858,0,0
1.7125449438146095766e-05,1.0357590897490340787,0.10091860394666105072,0.18796282628542546056,5.5703891072209907875,0.24160295339977547191,1.0025853218969194014,0.18776921228782900153,65,65,-0.0033885557204484939575,0,0
1.7196328113943397153e-05,1.0339660523397302683,0.10114305451818782211,0.18815700993034842337,5.5773436749382589994,0.24182749731332406351,1.0025873944982623964,0.18795216899524430643,66,66,-0.0030805051792412996292,0,0
1.7274303788963512381e-05,1.0319616101471618119,0.10139453475127660487,0.18836994474458204629,5.5851576557861442041,0.24207886683224869029,1.0025886353171480359,0.18815587930138688577,67,67,-0.0027724546380341053009,0,0
1.7359715504377518682e-05,1.0297280555589323203,0.10167581616003459888,0.18860236010577610677,5.5939263303188608845,0.24236024350569360108,1.0025914945431151359,0.18838208867366360022,68,68,-0.0024644040968269109726,0,0
1.7452800721883185555e-05,1.0272446277592894859,0.10198952231644840827,0.18885468134764046844,5.6037401021379915633,0.24267383622474955618,1.0025936229127261345,0.18863238511574759171,69,69,-0.0021563535556197166443,0,0
1.755365321572561964e-05,1.0244957079400902611,0.10233830205762138588,0.18912692033319294937,5.6146945390338558468,0.24302271430923633178,1.0025975178931363363,0.18890817670973131248,70,70,-0.0018483031308278441429,0,0
1.7662173554480047088e-05,1.021466075488661307,0.1027242135696440628,0.18941855060581980208,5.6268666158932010291,0.24340850930498356131,1.0026007045831633047,0.18921034949136614212,71,71,-0.0015402525896206498146,0,0
1.7778016878973884076e-05,1.0181513776969151053,0.10314862877199212909,0.18972838096463892632,5.6403155421731421271,0.24383302663738143368,1.0026056377733736369,0.18953906821963353857,72,72,-0.0012322020484134554863,0,0
1.7900543482290253567e-05,1.0145557221802361525,0.10361125015875211064,0.19005444282381847576,5.6550463754627484647,0.24429552655501055036,1.0026095340959337854,0.18989320574988521884,73,73,-0.00092415156541392207146,0,0
1.802878490731435983e-05,1.0107039504072068414,0.10410978301048422201,0.19039392478211944471,5.6710021150311034077,0.24479416381336324693,1.002614647351147692,0.19027004252080700897,74,74,-0.00061610102420672774315,0,0
1.8161437151279196528e-05,1.0066380147569296,0.10463899879067323218,0.19074318282738911279,5.6880277349037715595,0.24532324837197186373,1.0026177681298167332,0.19066481369254165146,75,75,-0.00030805051210336387157,0,0
1.8296894060218168738e-05,1.0024248567406668364,0.10519097674751208549,0.19109785642522189586,5.7058798700484487654,0.24587532918046184349,1.0026210861799347285,0.19107089901992360681,76,76,0,0,0
1.8433323213691546927e-05,0.99814491376918934584,0.10575510231312824916,0.19145309068986132717,5.7242211716746629335,0.24643930889149409658,1.0026213257076039831,0.19148008310668221399,77,77,0.00030805051210336387157,0,0
1.8568780473363020311e-05,0.99389200194429261348,0.10631944711037563667,0.19180384880237116851,5.7426675375243840804,0.24700375365491553104,1.0026211919365175529,0.19188353841695868218,78,78,0.00061610102420672774315,0,0
1.8701345150089172749e-05,0.98975519167497005846,0.10687165045645945216,0.19214526361076661454,5.7608125643110055236,0.24755579733568355838,1.002617847195191203,0.1922726245296720593,79,79,0.00092415156541392207146,0,0
1.8829256047515765762e-05,0.985816760737093567,0.10740075102335441826,0.1924729764721811176,5.7782910451468492141,0.24808499924725271879,1.00261476082259815,0.19264005276919909937,80,80,0.0012322020484134554863,0,0
1.8951023371835715403e-05,0.98213614917581648633,0.10789783726333887492,0.19278340158908244262,5.7947978290017552183,0.24858191807258767092,1.0026093719671793636,0.19298036971095830494,81,81,0.0015402525896206498146,0,0
1.9065502360144132737e-05,0.97875469393923908434,0.10835713562379634123,0.19307388497834801488,5.8101285139717759876,0.24904132487995006562,1.0026054308548117966,0.1932904782698091628,82,82,0.0018483031308278441429,0,0
1.9171919110252532982e-05,0.97568756572049719633,0.10877554019432843224,0.19334274006438093019,5.8241629494452178406,0.24945956003227920394,1.0026000877028122815,0.19356927109497049089,83,83,0.0021563535556197166443,0,0
1.9269855730781524337e-05,0.9729365429668018761,0.1091526620650889734,0.19358918343218375901,5.8368719723675166478,0.24983680023373694423,1.0025969218564418917,0.19381743762647218876,84,84,0.0024644040968269109726,0,0
1.9359203881948428797e-05,0.97048636484691896964,0.10948963231858709066,0.19381319706771371614,5.8482767491234257662,0.25017360188152892864,1.0025926398237028359,0.19403664849053495201,85,85,0.0027724546380341053009,0,0
1.9440104710640986204e-05,0.96831901839641609797,0.10978894615807138768,0.1940153636508280266,5.8584472775611438067,0.25047304374024448315,1.002590684529685916,0.19422931284194860924,86,86,0.0030805051792412996292,0,0
1.9512884505457119959e-05,0.96640820904837543281,0.1100534138088538616,0.19419669777670095501,5.8674655813800873361,0.25073734433002414779,1.0025875121882508179,0.19439793674778807486,87,87,0.0033885557204484939575,0,0
1.9577997624723318979e-05,0.96473140856189931736,0.11028633371046267508,0.19435850061621115503,5.8754335969721367405,0.2509704004268172306,1.0025865803587961089,0.19454517333011231428,88,88,0.0036966062616556882858,0,0
1.9635976960912068963e-05,0.96326165973845256918,0.11049074618746394794,0.19450223702063385023,5.882446082167152035,0.25117464728462146617,1.0025842439082770507,0.19467340923291939769,89,89,0.0040046568028628826141,0,0
1.9687396415748605158e-05,0.96197827547509706658,0.110669829749139359,0.19462944475937696276,5.8886051409609674323,0.25135387347588228346,1.0025840292087886407,0.19478499172945010209,90,90,0.0043127071112394332886,0,0
