"epsilon","mach_number","pressure","rad_temp","rho","rhoE","rhou","temperature","GlobalNodeId","PedigreeNodeId","Points:0","Points:1","Points:2"
1.6530950343143582001e-05,2.9999332798528066668,0.099160876385812904421,0.18630989774952091964,5.5165846012139345689,0.8924478755653374451,2.8645139913038475399,0.18629824203522368786,1,1,-0.016003377735614776611,0,0
1.6531036164435583405e-05,2.9999299892658695121,0.099161081721159755054,0.18631013955844111241,5.5165854005277301653,0.89244809216042830791,2.8645140227909884345,0.18629860081514001968,2,2,-0.015803335234522819519,0,0
1.6531287037517565828e-05,2.9999266260629329217,0.099161288694505092534,0.18631084640967016108,5.5165861308199444224,0.89244828781782337135,2.8645139913038248913,0.18629896500324388819,3,3,-0.015603293664753437042,0,0
1.6531707938766742949e-05,2.9999231371718462213,0.099161506231276133616,0.18631203230824985861,5.5165869758022143543,0.89244851655863566275,2.8645140227913956643,0.18629934516408150347,4,4,-0.01540325116366147995,0,0
1.6532310452195079624e-05,2.9999193093130673837,0.099161741910162332081,0.18631372986375280276,5.5165878129943930475,0.89244874086272196756,2.8645139913038368817,0.18629975967231290901,5,5,-0.015203209593892097473,0,0
1.6533113012222808971e-05,2.9999150797229487964,0.099162005253977961172,0.18631599096982529029,5.5165888283433677231,0.89244901534728870995,2.8645140227927869958,0.18630022013927835522,6,6,-0.015003167092800140381,0,0
1.6534141446758661588e-05,2.9999102133250143964,0.099162305188707139392,0.18631888832693521696,5.5165899043793285017,0.89244930383601839274,2.8645139913051442804,0.18630074730163379004,7,7,-0.014803124591708183289,0,0
1.6535429761268957493e-05,2.9999046158508773097,0.099162653186124702365,0.18632251764017646045,5.5165912342989038564,0.89244966289330951437,2.8645140227946628286,0.18630135618740223391,8,8,-0.014603083021938800812,0,0
1.6537021260249312987e-05,2.9998980071285328286,0.099163060963025198569,0.18632700076216077156,5.5165927110065169359,0.892450059130094564,2.8645139913074260107,0.18630207242605367757,9,9,-0.014403040520846843719,0,0
1.6538969967118004784e-05,2.9998902357808701069,0.099163543526353606361,0.18633248966878554476,5.5165945408372518699,0.892450552643833106,2.8645140228000967042,0.18630291724343711612,10,10,-0.014202998019754886627,0,0
1.6541342463960547122e-05,2.99988094762301305,0.099164117174874999439,0.18633917160644061783,5.5165966337097875893,0.89245111462121073931,2.8645139913119543884,0.1863039243026423375,11,11,-0.014002955518662929535,0,0
1.6544220136631748638e-05,2.9998699009535667592,0.09916480250858056289,0.18634727536470868658,5.5165992167529509516,0.89245181075125079584,2.8645140228096601653,0.18630512463488549391,12,12,-0.013802913948893547058,0,0
1.6547701977713112647e-05,2.9998566288127324064,0.099165622809510411972,0.18635707909666304749,5.5166022258155873459,0.89245261919559781827,2.8645139913240709184,0.18630656414701937673,13,13,-0.013602871447801589966,0,0
1.6551907965326403157e-05,2.9998407535583533345,0.09916660709687231956,0.18636891972669472617,5.5166059193101375513,0.89245361405847045688,2.8645140228288807904,0.18630828863069859302,14,14,-0.013402828946709632874,0,0
1.6556983211720256911e-05,2.9998216413228311339,0.09916778899037342887,0.18638320447635561838,5.5166102714826887876,0.89245478382888765445,2.8645139913492387862,0.18631036211713031259,15,15,-0.013202787376940250397,0,0
1.6563102945030653976e-05,2.9997987140518427296,0.09916920992422999237,0.18640042466417733324,5.5166155868757300595,0.89245621502062533192,2.8645140228696877038,0.18631285216341553213,16,16,-0.013002744875848293304,0,0
1.6570478575568879073e-05,2.9997710938489663413,0.099170918636096311305,0.18642117245443573514,5.5166218958821398033,0.8924579112242172485,2.8645139914025330441,0.18631584930569519698,17,17,-0.012802702374756336212,0,0
1.6579364974978846761e-05,2.9997379098854128898,0.099172974702451399676,0.18644616086893758822,5.5166295704663319555,0.89245997708933255677,2.8645140229537284782,0.18631945290608092902,18,18,-0.01260265987366437912,0,0
1.6590069300923854397e-05,2.9996979293634775665,0.099175448855386774683,0.18647624792975908692,5.5166387227113311553,0.89246243817712767044,2.8645139915176138778,0.18632379206020963092,19,19,-0.012402618303894996643,0,0
1.6602961589441435884e-05,2.9996498555475867853,0.099178427074429489907,0.18651246545949745625,5.5166498227059674875,0.89246542552978769258,2.864514023128685416,0.1863290124152469085,20,20,-0.012202575802803039551,0,0
1.6618487563916349987e-05,2.9995919407030791071,0.099182012020359575089,0.18655605365965274856,5.5166631011394038353,0.89246899660387934983,2.8645139917611972535,0.18633529903933970795,21,21,-0.012002533301711082458,0,0
1.6637184018767038282e-05,2.9995222698211865264,0.09918632802435840834,0.18660850226938524576,5.5166791706477269486,0.89247332077787533411,2.8645140234933497148,0.18634286480657394347,22,22,-0.011802491731941699982,0,0
1.665969739398880434e-05,2.9994383488597664567,0.099191524055821003736,0.18667159974160660307,5.5166984339774272073,0.89247850176842169478,2.8645139922755573636,0.18635197595977803786,23,23,-0.011602449230849742889,0,0
1.6686806095847585881e-05,2.9993373663476639024,0.099197780102778090883,0.18674749157317838133,5.5167217106754238287,0.89248476458917802567,2.8645140242574997913,0.18636294292513602699,24,24,-0.011402406729757785797,0,0
1.6719447420879730989e-05,2.9992157473462093265,0.099205312275533766297,0.18683874958836860225,5.5167496529987412046,0.8924922800264513123,2.8645139933605734406,0.18637614962415172126,25,25,-0.01120236515998840332,0,0
1.6758749924399540777e-05,2.9990693816445732622,0.099214381297287962402,0.18694845366717019464,5.5167833807373467536,0.89250135379794726109,2.8645140258558310364,0.1863920479711395628,26,26,-0.011002322658896446228,0,0
1.6806072438455554738e-05,2.9988931297374210594,0.099225300612337405393,0.18708028805609588918,5.5168239080011005626,0.89251225392170552286,2.8645139956473388843,0.18641119245758924761,27,27,-0.010802280157804489136,0,0
1.6863050994584766413e-05,2.9986810013985869539,0.099238448029906084491,0.187238654014015099,5.5168727901867109509,0.89252540315589656839,2.8645140292090767176,0.18643424015014964379,28,28,-0.010602237656712532043,0,0
1.6931655358231151141e-05,2.9984255940579367383,0.099254278096678083543,0.18742880106817666475,5.5169315662497897534,0.89254121047193102356,2.8645140004630711417,0.18646199275146185803,29,29,-0.010402196086943149567,0,0
1.7014257029263419376e-05,2.9981181986105882586,0.099273338406608971352,0.18765697853731555522,5.5170024236550574415,0.8925602683467664944,2.8645140362420202784,0.18649540473052231282,30,30,-0.010202153585851192474,0,0
1.7113711139392449851e-05,2.9977481423163658825,0.099296288062002857622,0.18793060915792872412,5.5170876628191107827,0.89258319009302300451,2.8645140105934210339,0.18653563604582004687,31,31,-0.010002111084759235382,0,0
1.7233454965996720026e-05,2.9973027890062273748,0.099323920845099819554,0.18825848550060717002,5.5171903885456909933,0.89261081428051070041,2.8645140510043445303,0.18658407221969813827,32,32,-0.0098020695149898529053,0,0
1.7377626535780569319e-05,2.9967667472142904828,0.099357192411108352648,0.18865098930963003498,5.5173140063895633745,0.89264405046278227918,2.8645140318959705361,0.18664239232699791904,33,33,-0.009602027013897895813,0,0
1.7551207283895145305e-05,2.996121718732069894,0.099397253507937016748,0.18912033173704226319,5.5174629530443315417,0.89268409403826798343,2.8645140819912322527,0.18671260652395696433,34,34,-0.0094019845128059387207,0,0
1.7760193739913322661e-05,2.9953455173172507386,0.099445489732829198126,0.18968081059463595683,5.5176422388706649613,0.89273228405195725887,2.8645140766694980883,0.18679714594750426726,35,35,-0.0092019420117139816284,0,0
1.8011803995135977857e-05,2.9944117020921372507,0.099503569422338233874,0.19034907698605835202,5.5178582354702854218,0.89279033329357593285,2.8645141470403330253,0.18689892565307703043,36,36,-0.0090019004419445991516,0,0
1.8314726066575238354e-05,2.9932883323309398271,0.099573501529009650346,0.19114440002824134579,5.5181182853245100972,0.89286020351016548435,2.8645141707297794298,0.18702146600167116053,37,37,-0.0088018579408526420593,0,0
1.8679416467199514329e-05,2.9919373004217391099,0.099657704886430359403,0.19208891276376224844,5.5184315734262554543,0.89294435770760383075,2.8645142835609402887,0.18716899245910506577,38,38,-0.008601815439760684967,0,0
1.9118459148319227696e-05,2.9903127244911922311,0.099759092262838494625,0.19320781719599686155,5.5188088349448989334,0.89304566050657108178,2.8645143682253930706,0.18734660223500843035,39,39,-0.0084017738699913024902,0,0
1.9646996746069383803e-05,2.9883598712460828217,0.099881170723782705667,0.19452952012883589772,5.5192633506323458548,0.89316766274551273597,2.8645145699805767414,0.18756041737363915445,40,40,-0.0082017313688993453979,0,0
2.0283248599084686189e-05,2.9860130639681679021,0.1000281635430627647,0.19608566733288493311,5.519810798561522347,0.89331453819389439186,2.86451478261746173,0.18781781633779318086,41,41,-0.0080016888678073883057,0,0
2.1049132546083322516e-05,2.9831940646405730178,0.10020515575311848833,0.1979110408660596232,5.5204704325616376082,0.89349141510193497151,2.864515170502111463,0.18812766382417719924,42,42,-0.0078016468323767185211,0,0
2.1971010949086523583e-05,2.9798093600940016579,0.10041827082665341631,0.20004328712242619437,5.5212651470621922911,0.89370436549445320118,2.8645156513097864703,0.18850063526232407884,43,43,-0.0076016047969460487366,0,0
2.3080584937479735352e-05,2.9757478710723117565,0.10067488179842883078,0.20252245108766933623,5.522222927769026235,0.89396080487478524201,2.8645164283438817598,0.18894955645624511575,44,44,-0.0074015622958540916443,0,0
2.4415965437617812679e-05,2.9708774976161858028,0.10098386714324165958,0.20539030864577467739,5.5233772343032079277,0.89426955751621595159,2.8645174699875881608,0.18948986023175101723,45,45,-0.0072015202604234218597,0,0
2.6022954309921754679e-05,2.965042074927556115,0.10135591683083614023,0.20868951125835627503,5.5247688587508188007,0.89464135490979035392,2.8645190590806466346,0.19014008189238454372,46,46,-0.0070014777593314647675,0,0
2.7956574749187358513e-05,2.9580571600883778238,0.10180390244474753214,0.21246258553222138743,5.5264467864785276063,0.89508901061744083894,2.864521270390539609,0.19092250183325798485,47,47,-0.0068014357239007949829,0,0
3.0282896057780034105e-05,2.9497063302098749382,0.1023433200519996561,0.21675085717191805434,5.5284706707410125048,0.89562806121104809876,2.864524548979273888,0.19186385877184897186,48,48,-0.0066013936884701251984,0,0
3.3081204742385559019e-05,2.9397364704679835867,0.10299282409105611769,0.22159338997583657993,5.5309124190968175228,0.89627709803363697638,2.8645291900851712619,0.19299624904430115468,49,49,-0.0064013511873781681061,0,0
3.6446580349421266675e-05,2.9278539333140805034,0.10377486545855309219,0.22702603732638759748,5.5338596046582084753,0.8970586119296596328,2.8645359675623134343,0.1943581360469930075,50,50,-0.0062013091519474983215,0,0
4.0492940924461173519e-05,2.9137201994668964211,0.10471645676514364232,0.23308069378163054353,5.5374181585601665034,0.89799954629608558232,2.8645456267062887612,0.19599559082816783717,51,51,-0.0060012666508555412292,0,0
4.5356627447652039732e-05,2.8969492768007922834,0.1058500828195762522,0.23978480616160019467,5.5417172052105421187,0.89913242741849963569,2.8645595993383863309,0.19796368320198781676,52,52,-0.0058012246154248714447,0,0
5.1200598415881969376e-05,2.8771057611134263077,0.10721478186380961617,0.24716116373489455116,5.5469134282806642489,0.90049621864631412826,2.8645795300821066398,0.20032814136994350762,53,53,-0.0056011825799942016602,0,0
5.8219301126525420614e-05,2.8537063552641037667,0.10885741677257076976,0.25522794229309958558,5.5531980313736672983,0.90213783227330213155,2.8646081375165510785,0.20316717707226489287,54,54,-0.0054011400789022445679,0,0
6.6644271978472669469e-05,2.8262242051415831234,0.11083415325855393296,0.26399893761245019075,5.5608035410060860926,0.9041133585421929908,2.8646488036127513155,0.20657356230814369336,55,55,-0.0052010980434715747833,0,0
7.6750486334679500402e-05,2.7940995751461050745,0.11321214709801871723,0.27348389476045409374,5.5700137339864577157,0.90649002702258052455,2.8647066608108162633,0.21065678129673107155,56,56,-0.005001055542379617691,0,0
8.8863420089667634577e-05,2.756756624115874299,0.11607140938384206963,0.28368882475751699968,5.5811735676676459406,0.90934778824294160149,2.8647882522525449644,0.21554522795806035917,57,57,-0.0048010135069489479065,0,0
0.00010336668319908568305,2.7136304060245133307,0.11950676978226251745,0.29461619577911674073,5.5947024030269849604,0.91278160432486443732,2.8649028839324652829,0.22138806312297473755,58,58,-0.0046009710058569908142,0,0
0.00012070991886173081575,2.6642037065472492507,0.12362973362049885229,0.30626488945221541638,5.6111062654163541552,0.91690296213544131287,2.8650621802257103532,0.2283563659486236852,59,59,-0.0044009289704263210297,0,0
0.00014141639813325360847,2.6080576406352231622,0.12856987073480669048,0.31862981768043791009,5.630991340328955097,0.92184166589752314369,2.8652813994507382311,0.23664265596191991214,60,60,-0.0042008869349956512451,0,0
0.00016608934122511740446,2.5449340251137124724,0.13447500226911035526,0.33170110079527354019,5.6550708708815031756,0.92774554913330464778,2.8655779121280171573,0.24645758664344064037,61,61,-0.0040008444339036941528,0,0
0.00019541542348656390287,2.4748114202284874352,0.14150902324334421745,0.34546271489194141369,5.6841628003612738596,0.93477877501373340952,2.8659707992491658679,0.25802174520986231876,62,62,-0.0038008023984730243683,0,0
0.00023016316521286018246,2.3979882760638608907,0.14984533990144821569,0.3598905370654822411,5.7191609541161971819,0.9431144751967324158,2.8664748805458630798,0.27154987382480588742,63,63,-0.0036007601302117109299,0,0
0.00027117303152436529915,2.3151675110443457051,0.15965341990039574882,0.37494977404571822044,5.7609674825591881131,0.95292181865955505327,2.8670941522427884074,0.28722450205788346844,64,64,-0.0034007178619503974915,0,0
0.00031933534465272055223,2.2275193037647178507,0.17107580449120399213,0.39059188816751305717,5.8103684184474770902,0.96434177933684894768,2.8678078444815642278,0.30515718750230008682,65,65,-0.003200675593689084053,0,0
0.00037555211036300820008,2.136691068743776345,0.18419603110562418613,0.40675136950527535085,5.8678661295296068445,0.97745634025896133146,2.868562899775647157,0.32534096771947829119,66,66,-0.0030006333254277706146,0,0
0.00044068047941392071449,2.0447249333000567795,0.19900177881556488368,0.42334304131169409047,5.9335109193026323027,0.99225088814798612091,2.86927263491221618,0.34760330392865201876,67,67,-0.0028005912899971008301,0,0
0.00051545977518928213536,1.9538697137477227805,0.21535505024751699921,0.44026095079199828453,6.0067902062438127686,1.0085872975336993562,2.8698374476436416813,0.37157910125331861106,68,68,-0.0026005490217357873917,0,0
0.00060043093223549582563,1.8663189901583394636,0.23298082073306655704,0.45738006992740709578,6.0866431854582723204,1.0261912696807036216,2.8701754363272162784,0.39671718255633375838,69,69,-0.0024005067534744739532,0,0
0.00069586512898425160328,1.7839281793692405298,0.25148932994796097118,0.47456176064601462983,6.1715664398209444386,1.0446757556294141711,2.8702478246045122212,0.42234060549703278387,70,70,-0.0022004644852131605148,0,0
0.00080172262346316308743,1.7080096406319285052,0.27042694429981578574,0.4916629774890493576,6.2598889761238849516,1.0635899025293285014,2.8700839227169945289,0.44773599822396364933,71,71,-0.0020004222169518470764,0,0
0.00091765906712057312804,1.6392026804283723607,0.28935619909544346706,0.50854783783088386429,6.3499463754594183129,1.0824954732974434446,2.8697365117469617601,0.47228202474782166043,72,72,-0.0018003800651058554649,0,0
0.0010430814650066590026,1.577539006421749157,0.30792029934042175476,0.52509880414573728569,6.4405065351528163475,1.1010401961892652967,2.8693248953186882844,0.49551519675052696501,73,73,-0.0016003377968445420265,0,0
0.0011772398279047758315,1.5224973205554539479,0.32590337155089404986,0.54122482514165848322,6.530598415296305248,1.1189976152386815755,2.8688702130765295628,0.51721910442149698905,74,74,-0.001400295644998550415,0,0
0.001319323987797936179,1.4733145997706267316,0.343215357595204551,0.55686424903174558398,6.620138306885399615,1.136294792991576541,2.8685289445696207089,0.5373265907595484725,75,75,-0.0012002533767372369766,0,0
0.0014685450848264517722,1.4289499772712817016,0.35991333739690029025,0.57198322642812204908,6.7090072402534390861,1.1529582989644273638,2.8681750214632431017,0.55600457271053060904,76,76,-0.0010002111084759235382,0,0
0.0016241653830150759325,1.3880426978112436753,0.37631870446026305377,0.58656890234907088644,6.8010527758324874625,1.1693727121072743369,2.8684214011408606382,0.57348008792722016125,77,77,-0.00080016889842227101326,0,0
0.0017853997370240999674,1.3451404192271876337,0.39466284455288569433,0.60061384457583688601,6.9198484565034839022,1.1877988356561959282,2.8715422792638252147,0.59111004743333928069,78,78,-0.00060012668836861848831,0,0
0.001950904302048287256,1.2902748418460245894,0.42029897050801878766,0.61407365229904864457,7.1391596305099884745,1.2142681704216353733,2.8872070807052705455,0.61016868714070227053,79,79,-0.00040008444921113550663,0,0
0.0021181106365368231222,1.2169264040581166952,0.45843066143866534334,0.6268283529745255489,7.5360064950533729444,1.2540884308817505932,2.9218877994889851379,0.63047965398897087841,80,80,-0.00020004222460556775331,0,0
0.0022829289399626893214,1.124725858473576201,0.51240354667003185085,0.63868184404425365486,8.1557790797808795702,1.3094093176825021274,2.9700768488200410822,0.65115646531382598283,81,81,0,0,0
0.00243987070429453742,1.0180123064461712445,0.58384830557120637184,0.64938637943464438962,9.0184307835430690403,1.3805598600059474368,3.0174130102065741532,0.67097715048268524729,82,82,0.00020004222460556775331,0,0
0.0025825796974977767613,0.90436452134998335239,0.67213283299019288553,0.65868064984848018195,10.119216315228896974,1.4667692311974744879,3.0464304852484160868,0.68840959388637690264,83,83,0.00040008444921113550663,0,0
0.0027048371913504470725,0.79311052049405561526,0.7728927631715779567,0.66634133483668256392,11.41507513809810348,1.564857458601156992,3.0427036280580632699,0.70174471339809518788,84,84,0.00060012668836861848831,0,0
0.0028019609969857947433,0.69426214994797974533,0.87653674608727838446,0.67224409114133110155,12.804618052370319248,1.6671807255085153709,3.0040092850776454192,0.70948330751068400257,85,85,0.00080016889842227101326,0,0
0.0028722256561441680302,0.6166717268045051048,0.96800851337968352173,0.67641948816176944437,14.117560713897221447,1.7590205680068011773,2.9442154309639945176,0.71065398531008172611,86,86,0.0010002111084759235382,0,0
0.002917730151238956144,0.56652126372310174229,1.0323433977111187154,0.67908283489082443829,15.159181824276599215,1.8248288191577730633,2.8943707900033008862,0.70580886000048392859,87,87,0.0012002533767372369766,0,0
0.0029439622359260183594,0.54169350145097094895,1.0643386934790775022,0.6806040527599857004,15.817396659511766543,1.8569589922201636956,2.8704206245029380007,0.69740254585888417083,88,88,0.001400295644998550415,0,0
0.0029578323651130813444,0.53190042215313348972,1.0774993521153108933,0.68140428665090613247,16.174770550535079394,1.8704716011791238106,2.8677493245623968399,0.69042669092419539645,89,89,0.0016003377968445420265,0,0
0.0029648826057903422161,0.52641402798538572405,1.0841329776182322409,0.6818099702313562549,16.367638565760795899,1.8767369385191825515,2.8638114886391212721,0.68649157560236007125,90,90,0.0018003800651058554649,0,0
