"epsilon","mach_number","pressure","rad_temp","rho","rhoE","rhou","temperature","GlobalNodeId","PedigreeNodeId","Points:0","Points:1","Points:2"
1.6531212471283719017e-05,2.9999333020130234395,0.099160876057629854241,0.18631063631529565239,5.5165846352844223333,0.89244788412340925188,2.8645140175789665093,0.18629824026807065285,1,1,-0.016003377735614776611,0,0
1.6531217086874662047e-05,2.9999325450401710391,0.099160922149932509417,0.18631064931999202772,5.5165847739530970983,0.89244792362906499861,2.8645139965132573323,0.18629832218094236063,2,2,-0.015961362048983573914,0,0
1.6531229429037167948e-05,2.9999318186165706557,0.099160967993285609179,0.18631068409474052516,5.5165849762806802303,0.89244797605625458825,2.864514017579059324,0.18629840147629689318,3,3,-0.015919344499707221985,0,0
1.6531249470365475549e-05,2.9999310670154848424,0.099161013748527204736,0.18631074056228738578,5.5165851137179808816,0.89244801522222938495,2.8645139965131622972,0.18629848279749122719,4,4,-0.015877328813076019287,0,0
1.6531277196718579858e-05,2.9999303434163704374,0.0991610594127200623,0.18631081868273041691,5.5165853154003725578,0.89244806746773686079,2.8645140175791095061,0.18629856177802670003,5,5,-0.015835311263799667358,0,0
1.6531312608049426502e-05,2.9999295919337574112,0.099161105156514370296,0.18631091845585537325,5.5165854528140556567,0.89244810661967155507,2.8645139965131054538,0.18629864307850310667,6,6,-0.015793295577168464661,0,0
1.6531355717373852397e-05,2.9999288659449736549,0.099161150964717739709,0.18631103991823050325,5.5165856550498233446,0.89244815900665919184,2.8645140175791752313,0.18629872231089933399,7,7,-0.015751278027892112732,0,0
1.6531406551652990793e-05,2.9999281093954981436,0.099161197018436883499,0.18631118314569244943,5.5165857936319628863,0.89244819846591949553,2.8645139965130903548,0.18629880415417748862,8,8,-0.015709262341260910034,0,0
1.6531465150806626968e-05,2.9999273758524211964,0.099161243290723344312,0.18631134825056569482,5.5165859976080051652,0.89244825131442784283,2.8645140175791694581,0.18629888419968732016,9,9,-0.015667244791984558105,0,0
1.6531531568647753395e-05,2.9999266090814993291,0.099161289973806271414,0.18631153538429479077,5.5165861385437562348,0.89244829140043024918,2.864513996513066374,0.18629896714588853324,10,10,-0.015625229105353355408,0,0
1.6531605871939415497e-05,2.9999258628316769482,0.099161337029468207827,0.18631174473478606668,5.5165863454446082415,0.8924483450297141518,2.8645140175791672377,0.18629904856437862204,11,11,-0.015583212487399578094,0,0
1.6531688141380742701e-05,2.9999250806792443491,0.09916138466166693477,0.18631197652918440877,5.5165864899200087734,0.89244838606217591348,2.8645139965130108628,0.18629913317418209107,12,12,-0.015541195869445800781,0,0
1.6531778470706711656e-05,2.9999243165462123883,0.099161432821464889908,0.18631223103133556784,5.5165867009364708551,0.89244844079299823214,2.8645140175794363557,0.18629921652806555321,13,13,-0.015499179251492023468,0,0
1.6531876967725287256e-05,2.9999235138102382514,0.099161481725093744699,0.18631250854470643441,5.516586850146628862,0.89244848309408897347,2.8645139965128683102,0.18629930336665792567,14,14,-0.015457162633538246155,0,0
1.6531983753459876318e-05,2.9999227265577053103,0.099161531313454467917,0.18631280940996713946,5.516587066481762669,0.89244853925074429934,2.8645140175793151194,0.18629938922482122687,15,15,-0.015415146015584468842,0,0
1.6532098963237561634e-05,2.9999218979578401445,0.099161581815679175622,0.18631313400805496472,5.5165872216419709062,0.89244858314766584151,2.8645139965128940673,0.18629947886582179373,16,16,-0.015373129397630691528,0,0
1.6532222745874361307e-05,2.9999210822536097609,0.099161633162957132925,0.18631348275787637525,5.5165874445218987532,0.89244864106045007635,2.864514017579477656,0.18629956780750900336,17,17,-0.015331112779676914215,0,0
1.6532355264814826875e-05,2.9999202223957013302,0.099161685597941293113,0.18631385611951523096,5.5165876068712424996,0.89244868688716127991,2.8645139965127373038,0.18629966083688032086,18,18,-0.015289096161723136902,0,0
1.6532496697360569098e-05,2.999919372775076809,0.099161739042675278721,0.18631425459205619433,5.5165878375528265565,0.89244874689453501659,2.8645140175796384163,0.18629975345567342804,19,19,-0.015247079543769359589,0,0
1.6532647235861853735e-05,2.9999184761144479516,0.099161793753902743864,0.18631467871693882521,5.5165880083663676459,0.89244879499445028959,2.8645139965127373038,0.18629985047567310108,20,20,-0.015205062925815582275,0,0
1.6532807086990156104e-05,2.9999175869442686881,0.099161849645030969436,0.18631512907590436212,5.5165882481439449947,0.89244885744515012327,2.8645140175796113269,0.18629994738342586791,21,21,-0.015163046307861804962,0,0
1.6532976472982716749e-05,2.9999166477483316662,0.09916190698759778932,0.18631560629449842037,5.5165884287400483998,0.89244890817323263565,2.864513996512648486,0.18630004901666524786,22,22,-0.015121029689908027649,0,0
1.6533155630960171705e-05,2.999915713188695765,0.099161965686859074309,0.18631611104014425551,5.5165886789568157056,0.89244897342890450176,2.8645140175797227933,0.18630015084763004718,23,23,-0.015079013071954250336,0,0
1.6533344814225409754e-05,2.9999147254999982692,0.099162026029764246959,0.18631664402579731221,5.5165888707047985307,0.89244902715396601245,2.8645139965125308024,0.1863002577411193017,24,24,-0.015036996454000473022,0,0
1.6533544291627708182e-05,2.9999137394664989742,0.099162087914013805068,0.18631720600814902222,5.5165891327596945359,0.89244909559129170784,2.864514017579791183,0.18630036515606548941,25,25,-0.014994979836046695709,0,0
1.6533754348917500992e-05,2.9999126970627898459,0.099162151642648035943,0.18631779779143795017,5.5165893370908136717,0.89244915269859648177,2.8645139965126196202,0.18630047798551829796,26,26,-0.014952963218092918396,0,0
1.6533975288158748101e-05,2.999911653186617233,0.099162217106332814498,0.18631842022578840035,5.5165896124477189488,0.89244922471179299883,2.8645140175798644577,0.18630059167607179726,27,27,-0.014910946600139141083,0,0
1.6534207429141610117e-05,2.9999105495412017319,0.099162284624911070652,0.18631907421118390489,5.5165898308622667301,0.89244928560530234485,2.8645139965125134829,0.18630071115023591477,28,28,-0.01486892998218536377,0,0
1.6534451108845199052e-05,2.9999094411278521832,0.099162354082644565967,0.18631976069594660683,5.5165901210611894001,0.89244936160883092668,2.8645140175800367643,0.1863008318433389543,29,29,-0.014826913364231586456,0,0
1.6534706682910416158e-05,2.9999082693674341549,0.099162425816833474346,0.18632048068087905812,5.5165903551391375359,0.89244942671395310896,2.8645139965123278536,0.18630095870857280027,30,30,-0.014784896746277809143,0,0
1.6534974525155560882e-05,2.9999070893540373817,0.099162499706016399292,0.18632123521789131781,5.5165906618040185805,0.8924495071449555228,2.8645140175800665183,0.18630108717114363115,31,31,-0.01474288012832403183,0,0
1.653525502911204904e-05,2.9999058422146895886,0.099162576105677704974,0.18632202541431858167,5.5165909132165946716,0.89244957691141435507,2.8645139965124473136,0.18630122221617942402,32,32,-0.014700863510370254517,0,0
1.6535548607595702332e-05,2.9999045831257160621,0.09916265488924960736,0.18632285243170362832,5.5165912380657573522,0.89244966223252397697,2.864514017580159333,0.18630135925992910573,33,33,-0.014658846892416477203,0,0
1.6535855694308392781e-05,2.9999032529066496089,0.099162736431259126957,0.18632371749029860708,5.5165915085830592446,0.89244973713681741145,2.8645139965122723424,0.18630150332091177656,34,34,-0.01461683027446269989,0,0
1.6536176743468217984e-05,2.9999019068055146064,0.099162820600716294894,0.1863246218680117694,5.5165918534424660535,0.89244982783933501924,2.8645140175803756044,0.18630164980756602766,35,35,-0.014574813656508922577,0,0
1.6536512231480564978e-05,2.9999004853214867872,0.099162907791954968406,0.18632556690510287956,5.5165921449467019144,0.89244990838806736999,2.8645139965122714543,0.18630180377322524965,36,36,-0.014532797038555145264,0,0
1.6536862656630789745e-05,2.9998990437613359816,0.099162997870359093078,0.18632655400330422335,5.5165925117579206471,0.89245000499464677279,2.8645140175803955884,0.18630196061990778045,37,37,-0.01449078042060136795,0,0
1.6537228540828529104e-05,2.9998975222901158588,0.099163091250950741173,0.18632758463071993904,5.5165928262551551242,0.89245009172763012373,2.8645139965122030645,0.18630212543724405938,38,38,-0.014448763802647590637,0,0
1.653761042936695023e-05,2.9998959762614152424,0.099163187796215274128,0.18632866032113262755,5.5165932170900235931,0.89245019479588139077,2.864514017580438221,0.18630229362215541822,39,39,-0.014406747184693813324,0,0
1.6538008892744654146e-05,2.9998943454901367822,0.099163287942846095602,0.18632978267911848302,5.5165935567218999935,0.89245028828942296606,2.8645139965121493297,0.18630247030228058724,40,40,-0.014364730566740036011,0,0
1.6538424526495930323e-05,2.9998926853632092993,0.099163391551278137759,0.18633095337955138393,5.5165939737956586342,0.89245039841530660052,2.8645140175807641825,0.18630265087090866483,41,41,-0.014322713948786258698,0,0
1.6538857953095012108e-05,2.9998909353308444992,0.099163499080758110704,0.18633217417294700713,5.5165943408517614799,0.89245049928574959885,2.8645139965119739145,0.1863028404953189221,42,42,-0.014280697330832481384,0,0
1.6539309821862364382e-05,2.9998891507979092985,0.099163610390650233639,0.18633344688517805565,5.5165947865346796064,0.89245061710717732417,2.8645140175809902239,0.18630303456679420115,43,43,-0.014238680712878704071,0,0
1.6539780810956488316e-05,2.9998872708321866476,0.099163725963840598787,0.18633477342306153934,5.5165951834701969503,0.89245072601498187659,2.864513996511996563,0.18630323829415212922,44,44,-0.014196664094924926758,0,0
1.6540271627361690212e-05,2.9998853508420246783,0.099163845659503743746,0.18633615577429984977,5.516595660303116766,0.89245085221572872936,2.8645140175811110161,0.18630344706829912726,45,45,-0.014154647476971149445,0,0
1.6540783008973242841e-05,2.9998833294952991224,0.099163969985275129959,0.1863375960133270004,5.5165960897503625304,0.89245096986930871896,2.8645139965118606717,0.18630366614148058391,46,46,-0.014112630859017372131,0,0
1.6541315724672639236e-05,2.9998812621861583594,0.099164098801231767566,0.18633909630149197989,5.5165966004620559104,0.89245110518349635154,2.8645140175814698402,0.18630389090610924296,47,47,-0.014070614241063594818,0,0
1.6541870576512402374e-05,2.999879087163701108,0.099164232640900185078,0.18634065889318091047,5.5165970652481028935,0.89245123234359824416,2.8645139965117549785,0.18630412665994147692,48,48,-0.014028597623109817505,0,0
1.654244839988538334e-05,2.9998768597899592159,0.099164371366387477069,0.18634228613626035997,5.5165976127691713771,0.8924513775598696963,2.8645140175815950734,0.18630436879883743861,49,49,-0.013986581005156040192,0,0
1.6543050065816165026e-05,2.9998745178747721063,0.099164515538394726324,0.18634398047849420887,5.5165981159339727569,0.89245151504442687962,2.8645139965115862246,0.18630462266827993445,50,50,-0.013944564387202262878,0,0
1.6543676481231536687e-05,2.9998721167285964384,0.099164665022252990179,0.18634574446826632221,5.5165987034177366155,0.89245167101110889352,2.8645140175819792105,0.18630488366968295244,51,51,-0.013902547769248485565,0,0
1.6544328591366037022e-05,2.9998695937004358214,0.099164820407160889082,0.18634758076131222038,5.5165992482316408285,0.89245181970004905381,2.8645139965116031,0.18630515719861814872,52,52,-0.013860531151294708252,0,0
1.6545007380141479143e-05,2.9998670040282617855,0.099164981562974013896,0.18634949212174239941,5.5165998790702142074,0.89245198733001296354,2.8645140175821377504,0.18630543866433590949,53,53,-0.013818514533340930939,0,0
1.6545713872694767937e-05,2.9998642845762168996,0.099165149108902936326,0.18635148142911078795,5.5166004690554215628,0.89245214817086537806,2.8645139965117341063,0.18630573351506160562,54,54,-0.013776497915387153625,0,0
1.6546449135875030485e-05,2.9998614904882190402,0.099165322920641008064,0.18635355167976133672,5.5166011469033806591,0.89245232844742927725,2.8645140175824819195,0.18630603717027086064,55,55,-0.013734481297433376312,0,0
1.6547214280902676096e-05,2.9998585581178525139,0.099165503648990932506,0.18635570599425746452,5.5166017858524885042,0.89245250246077589829,2.8645139965115911096,0.1863063551336214263,56,56,-0.013692464679479598999,0,0
1.6548010463993344493e-05,2.9998555424904020938,0.099165691177043546745,0.18635794761907650829,5.5166025146489765518,0.89245269644364300099,2.864514017582847405,0.18630668283745560609,57,57,-0.013650448061525821686,0,0
1.6548838889157952792e-05,2.9998523794227889283,0.099165886188791976807,0.18636027993442608186,5.5166032066514150145,0.89245288472974326766,2.8645139965116390712,0.18630702584374059239,58,58,-0.013608431443572044373,0,0
1.6549700808963527601e-05,2.9998491237944717724,0.099166088576395458598,0.18636270645631317078,5.5166039906421708849,0.8924530935612896565,2.8645140175831866891,0.18630737960061982683,59,59,-0.013566414825618267059,0,0
1.6550597527484765863e-05,2.9998457108572180729,0.099166299058819545875,0.18636523084477515932,5.5166047401074180812,0.89245329730654088252,2.8645139965115067326,0.18630774973146788098,60,60,-0.013524398207664489746,0,0
1.6551530401212721636e-05,2.9998421953166216625,0.099166517539047427388,0.18636785690635296331,5.5166055838731544725,0.89245352221908680335,2.864514017583793315,0.18630813170327295558,61,61,-0.013482381589710712433,0,0
1.6552500842169295421e-05,2.9998385118272987704,0.099166744772959516951,0.18637058860276670136,5.5166063955580959544,0.89245374270334021372,2.8645139965114561065,0.18630853120430035386,62,62,-0.01344036497175693512,0,0
1.6553510318975651026e-05,2.9998347148913566684,0.099166980676224175673,0.18637343005382386862,5.5166073040399146166,0.89245398502633388471,2.8645140175843550878,0.18630894372360659594,63,63,-0.013398348353803157806,0,0
1.6554560360142067817e-05,2.999830738532093477,0.099167226043757786269,0.18637638554657268153,5.5166081830783575413,0.89245422363077375749,2.8645139965114876368,0.18630937501804684109,64,64,-0.013356331735849380493,0,0
1.6555652555308918524e-05,2.9998266370148742865,0.099167480805963784118,0.18637945953867895987,5.5166091616095043193,0.89245448479909750272,2.8645140175849848063,0.18630982060236808695,65,65,-0.01331431511789560318,0,0
1.6556788558725335302e-05,2.9998223436961803934,0.099167745798995898809,0.18638265666809186727,5.5166101135424083779,0.89245474301449911891,2.8645139965114476688,0.18631028630587251338,66,66,-0.013272298499941825867,0,0
1.6557970090676741459e-05,2.9998179125684338864,0.099168020970241452239,0.18638598175692627779,5.5166111678800202611,0.89245502457711389788,2.8645140175853938125,0.186310767672934946,67,67,-0.013230281881988048553,0,0
1.6559198941166849468e-05,2.9998132762826319464,0.099168307199503549776,0.18638943982167860414,5.5166121986907921126,0.8924553040131414372,2.8645139965115307135,0.18631127060949606578,68,68,-0.01318826526403427124,0,0
1.6560476971546891575e-05,2.9998084885198963434,0.099168604453519909603,0.18639303607765364545,5.516613335052476863,0.89245560764269138421,2.864514017586367256,0.1863117906937346302,69,69,-0.013146248646080493927,0,0
1.6561806118416748618e-05,2.9998034811830986968,0.099168913658352592089,0.18639677594977141495,5.5166144512003461031,0.89245591003729307644,2.8645139965115804515,0.18631233391288298806,70,70,-0.013104232028126716614,0,0
1.6563188395472183196e-05,2.9997983076007752601,0.099169234802697930897,0.18640066507758032421,5.5166156762996179097,0.892456237540028674,2.8645140175872012556,0.18631289588339400298,71,71,-0.013062215410172939301,0,0
1.6564625897642239866e-05,2.9997928988827693431,0.09916956886165795293,0.18640470932669897519,5.5166168847626808613,0.89245656477049406519,2.8645139965117842884,0.18631348267866951196,72,72,-0.013020198792219161987,0,0
1.6566120803172210965e-05,2.999787307959164373,0.09916991584870345211,0.18640891479446081158,5.516618205851128387,0.8924569180973386251,2.8645140175880565714,0.18631408995842332899,73,73,-0.012978182174265384674,0,0
1.6567675378015729446e-05,2.9997814650985743512,0.099170276790986763849,0.18641328782203755998,5.5166195141662495161,0.89245727219138593078,2.8645139965119001957,0.18631472388748551716,74,74,-0.012936165556311607361,0,0
1.6569291978172725506e-05,2.9997754227840025543,0.099170651729782566264,0.18641783500076439251,5.5166209390784279876,0.89245765344999317126,2.8645140175892618295,0.18631538017410012587,75,75,-0.012894148938357830048,0,0
1.6570973054356212203e-05,2.9997691103897672349,0.09917104174754824697,0.18642256318499528245,5.5166223553879047969,0.8924580365981544805,2.8645139965122234926,0.18631606508030171265,76,76,-0.012852132320404052734,0,0
1.6572721154605961471e-05,2.9997625798993556856,0.099171446916636277202,0.18642747949916044226,5.5166238925865389575,0.89245844806538354721,2.8645140175904266755,0.18631677436858382069,77,77,-0.012810115702450275421,0,0
1.6574538929251646241e-05,2.9997557597359723047,0.099171868378343130956,0.18643259135140782812,5.5166254256878479723,0.89245886263443241493,2.8645139965125725467,0.18631751440434221601,78,78,-0.012768099084496498108,0,0
1.6576429133824702541e-05,2.999748701326920397,0.099172306239609389622,0.18643790644144878077,5.5166270843175553296,0.89245930677044238433,2.8645140175917593872,0.1863182810104931364,79,79,-0.012726082466542720795,0,0
1.657839463434128077e-05,2.9997413320826651351,0.099172761704381634518,0.18644343277504343837,5.5166287437161907192,0.89245975531761112531,2.8645139965129637893,0.18631908066249022737,80,80,-0.012684065848588943481,0,0
1.6580438410536556298e-05,2.9997337028128265857,0.099173234918027736162,0.18644917867269417133,5.5166305336584438024,0.89246023478073577273,2.8645140175933283544,0.18631990925037131279,81,81,-0.012642049230635166168,0,0
1.6582563561492812782e-05,2.9997257398493295533,0.099173727151213461606,0.18645515278503685397,5.5166323296258816811,0.89246072006938736987,2.864513996513554428,0.18632077336682001389,82,82,-0.012600032612681388855,0,0
1.6584773309222544001e-05,2.9997174933170702715,0.099174238591897681538,0.18646136410244626425,5.5166342615583117137,0.89246123773221130993,2.86451401759506874,0.18632166897626831203,83,83,-0.012558015994727611542,0,0
1.6587071004669031761e-05,2.9997088883985982832,0.099174770581862817243,0.18646782197139893933,5.5166362051944881628,0.89246176274852728749,2.8645139965142112359,0.18632260279634679789,84,84,-0.012515999376773834229,0,0
1.6589460131666655218e-05,2.9996999744617678374,0.099175323356162886634,0.18647453610505881905,5.5166382906567923428,0.89246232171545558653,2.8645140175971226526,0.18632357087374937232,85,85,-0.012473982758820056915,0,0
1.6591944313343629869e-05,2.9996906754626455616,0.099175898332460307727,0.18648151660068254531,5.5166403939576520443,0.89246288968660758556,2.8645139965150492323,0.18632458005944649293,86,86,-0.012431966140866279602,0,0
1.6594527316490261491e-05,2.9996810399347713094,0.099176495797729094517,0.18648877395125798562,5.5166426454208661312,0.8924634933126222025,2.8645140175995131848,0.18632562649081682582,87,87,-0.012389949522912502289,0,0
1.6597213058395880996e-05,2.9996709905243919003,0.099177117250675447813,0.18649631906402713843,5.5166449213513155669,0.89246410772644180209,2.8645139965163282092,0.18632671716123816452,88,88,-0.012347932904958724976,0,0
1.6600005611658300893e-05,2.9996605748460880569,0.099177763035446231399,0.18650416327325511356,5.5166473522935204343,0.89246475963744831272,2.8645140176022962919,0.18632784830798476694,89,89,-0.012305916287004947662,0,0
1.6602909211489552384e-05,2.9996497141470861436,0.099178434737323378778,0.18651231835995069064,5.5166498148645697341,0.89246542426333952402,2.8645139965173886942,0.18632902707656806562,90,90,-0.012263899669051170349,0,0
