"epsilon","mach_number","pressure","rad_temp","rho","rhoE","rhou","temperature","GlobalNodeId","PedigreeNodeId","Points:0","Points:1","Points:2"
1.6530963623986451674e-05,2.9999332820251338738,0.099160876282383861313,0.18630993516950705713,5.5165845961287987009,0.892447875738144214,2.8645139906151850795,0.18629824201263461836,1,1,-0.016003377735614776611,0,0
1.6531019234101288932e-05,2.9999306447685967214,0.099161041063089552794,0.18631009185583302656,5.5165852544268050295,0.89244805122673631637,2.8645140234787640487,0.1862985293628253991,2,2,-0.015843344852328300476,0,0
1.6531180429594111722e-05,2.9999279610279203645,0.09916120601725361694,0.18631054603589344842,5.5165858193322039327,0.89244820543676683933,2.8645139906149164055,0.18629882019276319816,3,3,-0.01568331010639667511,0,0
1.6531448751548644572e-05,2.9999252475979196753,0.099161375462402889802,0.18631130204520862659,5.5165864951943293093,0.89244838555453231965,2.8645140234791508504,0.18629911571297666506,4,4,-0.015523277223110198975,0,0
1.6531828436180784862e-05,2.9999223518649058562,0.099161553497498403087,0.18631237180820986454,5.5165871088847682202,0.89244855280888579774,2.8645139906147902842,0.18629942947103578232,5,5,-0.015363243408501148224,0,0
1.6532326438795950577e-05,2.9999192894553203814,0.099161744511194818696,0.18631377490467682101,5.5165878650270219197,0.89244875445711946416,2.8645140234797801249,0.186299762801807961,6,6,-0.015203209593892097473,0,0
1.6532952563612400495e-05,2.9999159012520055789,0.099161953004041056281,0.18631553893380192743,5.5165885919851529451,0.89244895212793051709,2.8645139906148582298,0.1863001299569466418,7,7,-0.015043175779283046722,0,0
1.6533719625225747963e-05,2.9999121947848004233,0.099162183865160749563,0.186317699966607353,5.5165894962504777865,0.8924491935789836683,2.8645140234808073032,0.1863005331484542948,8,8,-0.014883141964673995972,0,0
1.6534643720643224366e-05,2.9999079972702342722,0.099162442440490619622,0.18632030330886900638,5.516590409325529798,0.89244944128234260372,2.8645139906152432552,0.18630098811026266081,9,9,-0.014723108150064945221,0,0
1.6535744539911674078e-05,2.999903300630694325,0.099162734584980802288,0.1863234043714464272,5.5165915412977666321,0.89244974396143461615,2.8645140234824606473,0.18630149874741300242,10,10,-0.01456307433545589447,0,0
1.6537045799153672138e-05,2.9998979103112528577,0.099163066992051449033,0.18632706988370684176,5.5165927286710516597,0.89245006543333615934,2.8645139906162460086,0.18630208315650167994,11,11,-0.014403040520846843719,0,0
1.6538575726568334299e-05,2.9998917938003688555,0.099163447029291182377,0.18633137925380874322,5.5165941871602743873,0.89245045593402660966,2.8645140234851975691,0.18630274789429809856,12,12,-0.014243006706237792969,0,0
1.6540367690605004681e-05,2.999884724952182502,0.09916388334586269393,0.1863364263263332099,5.5165957605280331322,0.89245088123321758555,2.8645139906184011735,0.18630351448656515267,13,13,-0.014082972891628742218,0,0
1.6542460904053006543e-05,2.9998766358489521444,0.099164385501743820828,0.18634232134952602444,5.5165976726424057475,0.89245139375913962176,2.8645140234898440745,0.1863043933335236102,14,14,-0.013922939077019691467,0,0
1.6544901299549238537e-05,2.9998672563117438905,0.099164964872592173406,0.18634919341966926787,5.5165997773854478226,0.89245196200397214348,2.8645139906226528836,0.1863054107414865157,15,15,-0.013762905262410640717,0,0
1.6547742514507868922e-05,2.9998564688915148047,0.099165634085947584886,0.18635719322598048864,5.5166023100313257288,0.89245264146333247446,2.8645140234979091787,0.18630658248839682134,16,16,-0.013602871447801589966,0,0
1.6551047088628834868e-05,2.9998439431827605972,0.099166408247243320595,0.18636649638387206562,5.5166051383051781798,0.89245340435383779809,2.8645139906308556554,0.18630794142017104154,17,17,-0.013442837633192539215,0,0
1.6554887817836200085e-05,2.9998294936507554631,0.099167304201419739784,0.18637730719485909314,5.5166085131616569015,0.89245431038826839032,2.8645140235120192251,0.18630951070819606885,18,18,-0.013282803818583488464,0,0
1.6559349377393625392e-05,2.9998127082657690679,0.099168342109726304034,0.18638986314572666969,5.5166123210910704699,0.89245533683194955277,2.8645139906462575574,0.18631133206286165649,19,19,-0.013122770003974437714,0,0
1.6564530166129011506e-05,2.9997933087626695858,0.09916954456223885106,0.18640444000513867184,5.5166168344086257136,0.89245654914249994416,2.8645140235368882209,0.18631343872707964437,20,20,-0.012962736189365386963,0,0
1.6570544496781679743e-05,2.9997707729790810127,0.099170938543362036066,0.18642135786084074178,5.5166219649303585015,0.89245793139886708811,2.8645139906749759184,0.18631588437416354842,21,21,-0.012802702374756336212,0,0
1.6577525095563748042e-05,2.9997446969911876202,0.099172554430412909743,0.18644098798188057931,5.5166280139249117553,0.89245955684550493103,2.864514023581073765,0.18631871589815285351,22,22,-0.012642668560147285461,0,0
1.6585626051862167543e-05,2.9997144103558306405,0.099174428397073202679,0.18646376088663982329,5.5166349273183259427,0.89246141873782758314,2.8645139907279770775,0.18632200308328003557,23,23,-0.012482634745538234711,0,0
1.6595026196526769033e-05,2.9996793393591829613,0.099176601346390183545,0.18649017553498128952,5.5166430455166182156,0.89246360084552833758,2.8645140236598729544,0.18632581127468503257,24,24,-0.01232260093092918396,0,0
1.6605933070519805918e-05,2.9996386141166944128,0.099179121816692195068,0.18652081007118931355,5.516652360345979389,0.89246610877142829032,2.864513990825424905,0.18633023193379047444,25,25,-0.012162567116320133209,0,0
1.6618587483405123181e-05,2.999591431890941351,0.099182044915283054665,0.18655633407842445171,5.516663265030932628,0.8924690404887899442,2.8645140238009902944,0.18633535530397812852,26,26,-0.012002533301711082458,0,0
1.663326885095648986e-05,2.9995366546723896128,0.099185435812018427071,0.18659752282594183059,5.5166758131438458079,0.89247241820880118812,2.8645139910037413777,0.18634130200276932676,27,27,-0.011842499487102031708,0,0
1.6650301340059396333e-05,2.9994731711481090741,0.099189368764065644068,0.18664527352054341436,5.5166904691255034265,0.89247635905369637754,2.8645140240544084698,0.18634819583868941772,28,28,-0.011682465672492980957,0,0
1.6670061046643995132e-05,2.9993994829423447079,0.0991939313102561393,0.18670062410554591481,5.5167073696063493315,0.89248090757243425664,2.8645139913291841616,0.18635619664056499167,29,29,-0.011522431857883930206,0,0
1.6692984273837366721e-05,2.9993140633170463083,0.099199223509814721256,0.18676477467517960118,5.5167270749961554444,0.89248620668814437895,2.8645140245104201426,0.18636547343792930764,30,30,-0.011362398974597454071,0,0
1.6719577184561999804e-05,2.9992149296606807063,0.099205362988136938651,0.18683911211251433282,5.5167498336597651232,0.89249233099434854832,2.8645139919218696178,0.18637623879407569372,31,31,-0.01120236515998840332,0,0
1.6750426948652251462e-05,2.9990999963342721557,0.099212484556228830446,0.18692523807356811738,5.5167763352895189399,0.8924994581644264402,2.864514025332249858,0.18638872263795513984,32,32,-0.01104233134537935257,0,0
1.6786214723351219294e-05,2.9989666302124109443,0.099220746309127832996,0.18702500098213001301,5.5168069785814983774,0.89250770320502603727,2.864513992999673242,0.18640320845684629769,33,33,-0.010882297530770301819,0,0
1.6827730658761524848e-05,2.9988119942063145018,0.099230329851717938294,0.18714053219496792901,5.5168426273557669148,0.89251729058133821848,2.8645140268151108032,0.18642000816916229344,34,34,-0.010722263716161251068,0,0
1.6875891353392165182e-05,2.9986325816241210518,0.099241447719136011152,0.18727428702755960499,5.5168838826013191223,0.89252838966409253629,2.8645139949573019678,0.18643950065251133075,35,35,-0.010562229901552200317,0,0
1.6931760047831150923e-05,2.9984245457425582337,0.099254344513874256939,0.18742909078882566409,5.5169318426478426431,0.89254128791333597892,2.864514029492911007,0.18646210818300690271,36,36,-0.010402196086943149567,0,0
1.6996570096937903467e-05,2.9981832073935854588,0.09926930600919210701,0.18760819046914653518,5.5169873807472828986,0.89255622783565247147,2.8645139985098246882,0.18648833793548838522,37,37,-0.010242162272334098816,0,0
1.707175213842851438e-05,2.9979033644445389761,0.099286661608982279548,0.18781531211802054981,5.5170519110590996448,0.89257358168886147265,2.8645140343316004561,0.18651876069746514686,38,38,-0.010082128457725048065,0,0
1.7158965652207248503e-05,2.9975787652524830129,0.099306795618551435556,0.18805472437125522744,5.5171266733421120421,0.89259369037395719371,2.8645140049522450632,0.1865540561941337605,39,39,-0.0099220946431159973145,0,0
1.7260135502726312501e-05,2.9972023899660049651,0.099330151582024225898,0.18833130786815424629,5.5172135071358088254,0.89261704028428745517,2.8645140430784046259,0.18659499502951845673,40,40,-0.0097620608285069465637,0,0
1.7377494364268481863e-05,2.9967658802291761155,0.099357246370725904594,0.18865063059612016683,5.5173141456863943333,0.89264410470162902644,2.8645140166287426098,0.18664248897788496273,41,41,-0.009602027013897895813,0,0
1.7513631855145021733e-05,2.9962597817566232195,0.099388677145451811978,0.18901902830867417515,5.5174310015473544411,0.89267552363002033999,2.8645140588933779568,0.18669757743126416671,42,42,-0.0094419931992888450623,0,0
1.7671551554739578082e-05,2.9956729178355430143,0.099425139135795606582,0.18944368926761592786,5.5175664726130522197,0.89271194846018442348,2.8645140377812823296,0.1867614841851009122,43,43,-0.0092819593846797943115,0,0
1.7854737041675086451e-05,2.9949925795977394571,0.099467436233099448817,0.18993274143410460164,5.5177237435018628986,0.89275422591930986282,2.8645140874906487305,0.18683561010652180445,44,44,-0.0091219255700707435608,0,0
1.8067228491575505219e-05,2.9942038274260012187,0.099516503633980069043,0.19049534009339641472,5.5179061075957180904,0.8928032470295609313,2.8645140760824125969,0.18692159845678338326,45,45,-0.0089618917554616928101,0,0
1.8313711388478309241e-05,2.9932896117747014308,0.099573423416647613426,0.19114175251299919678,5.5181177901208471326,0.89286013669620645228,2.8645141391986350676,0.18702133607261611781,46,46,-0.0088018579408526420593,0,0
1.8599619371666357265e-05,2.9922299826172666926,0.09963945362448869969,0.19188343586925543649,5.5183632914963514082,0.89292610833656016478,2.864514145401440004,0.18713702995102482474,47,47,-0.0086418241262435913086,0,0
1.8931253322929008151e-05,2.9910021197476410748,0.099716050643389897434,0.19273310312852051651,5.5186482401490444261,0.89300266115390047883,2.864514232675789529,0.18727121999977452971,48,48,-0.0084817903116345405579,0,0
1.9315919353586837352e-05,2.9895794262312143097,0.099804906840924481615,0.19370477117498602349,5.5189787644070040784,0.89309144228205261662,2.8645142707907167434,0.18742687051115369812,49,49,-0.0083217564970254898071,0,0
1.976208852165566135e-05,2.9879314434031432057,0.099907982184235410994,0.19481378409566357801,5.5193623859978577784,0.8931944544965700894,2.8645144016026344858,0.18760739853924215947,50,50,-0.0081617226824164390564,0,0
2.0279581773513631078e-05,2.9860228007053852828,0.10002755327207780989,0.19607680459222726066,5.5198074303984299149,0.8933139283451165813,2.8645144974581855379,0.18781678506781054883,51,51,-0.0080016888678073883057,0,0
2.0879783886782234679e-05,2.9838129882968931206,0.100166257461962796,0.19751176591895960866,5.5203239759839419776,0.89345254398913909188,2.864514706710570735,0.18805962437081966132,52,52,-0.0078416550531983375549,0,0
2.1575890990937469065e-05,2.9812551343536091153,0.10032715709327390263,0.19913777802341234291,5.5209233164655202586,0.8936133166183056753,2.8645149068762219002,0.18834126120076266631,53,53,-0.0076816217042505741119,0,0
2.238319666078763604e-05,2.9782956097124189121,0.10051380049182806475,0.20097498261963173127,5.5216189862345625983,0.89379983737111812214,2.864515257346428978,0.1886678681439111771,54,54,-0.0075215878896415233612,0,0
2.3319422539751419446e-05,2.9748726078862457456,0.10073030645249470005,0.20304435512850377288,5.5224262937131749496,0.89401617641776642831,2.8645156456142815138,0.18904661707770387125,55,55,-0.0073615540750324726105,0,0
2.440510002596422409e-05,2.9709155658663184418,0.1009814479332482029,0.20536745451399088247,5.5233634512140943329,0.89426714956947128687,2.8645162499931622335,0.18948579358140268947,56,56,-0.0072015202604234218597,0,0
2.5664010696415016596e-05,2.9663435374728344129,0.10127276352332477416,0.20796612706275099947,5.524451205301246226,0.89455824481507972834,2.8645169767259663907,0.18999501325513967753,57,57,-0.007041486445814371109,0,0
2.7123693883192922729e-05,2.9610644398773988684,0.10161067150246241853,0.21086217445135360671,5.5257141103455893472,0.8948959233987737738,2.864518036738969986,0.1905853846573022925,58,58,-0.0068814526312053203583,0,0
2.881603113153761463e-05,2.9549732469746476937,0.10200261713364276728,0.2140770015992954356,5.5271802921477926063,0.89528757734735342488,2.8645193708020881829,0.1912697837533864631,59,59,-0.0067214188165962696075,0,0
3.0777918134336984058e-05,2.9479511244255389713,0.10245722709102030035,0.21763126287284470517,5.528882919488302683,0.89574187656162740367,2.8645212461474311993,0.19206307940873273976,60,60,-0.0065613850019872188568,0,0
3.3052036157330189807e-05,2.9398635410735241003,0.10298450398946305817,0.2215445276085525883,5.5308601512423969382,0.89626876692809143155,2.8645236660076758284,0.19298248187781383289,61,61,-0.0064013511873781681061,0,0
3.5687735827350662479e-05,2.9305594539088106742,0.10359603390458221872,0.22583498496140619327,5.5331568809590789826,0.89687987832700988289,2.8645269945982367865,0.19404784694283283564,62,62,-0.0062413173727691173553,0,0
3.8742047471077988192e-05,2.9198695619925598699,0.10430524238892753541,0.23051920566169192828,5.535824936242323524,0.89758857500872557544,2.8645313461819696954,0.19528211596677924611,63,63,-0.0060812835581600666046,0,0
4.2280832703632259138e-05,2.9076058685824839323,0.1051276705138318307,0.2356119725139864951,5.5389251987311052261,0.89841044307621154008,2.8645372508280040336,0.19671171473374052252,64,64,-0.0059212497435510158539,0,0
4.6380092674800464246e-05,2.8935605050952517558,0.1060813089895921435,0.24112618511622241346,5.5425281470067435663,0.89936340605639930601,2.8645450162750600853,0.19836710077232724836,65,65,-0.0057612159289419651031,0,0
5.1127447780116710508e-05,2.8775062498661738708,0.10718695958729740347,0.2470728361980424892,5.5467164870564324985,0.90046831328730481125,2.8645554524436396271,0.20028326712882166261,66,66,-0.0056011825799942016602,0,0
5.6623802642288858481e-05,2.8591966403360644655,0.10846866379270091174,0.25346105022779014115,5.5515861509872870272,0.90174913171342319096,2.8645691958326131576,0.20250040198627805577,67,67,-0.0054411487653851509094,0,0
6.2985206828992566178e-05,2.8383683639598360493,0.10995416325220286335,0.2602981683552045844,5.5572496023894180084,0.90323365564587454468,2.864587518128720145,0.20506448783321040708,68,68,-0.0052811149507761001587,0,0
7.0344916759676367666e-05,2.8147437277560083402,0.11167543131736777651,0.26758985990125216947,5.5638374033486188708,0.90495377500202289767,2.8646115951593111859,0.20802804702861213415,69,69,-0.005121081136167049408,0,0
7.8855654866044058368e-05,2.788036195516700122,0.11366922997708571452,0.27534023759793363473,5.5715023546272623989,0.90694631431713790271,2.86464343314750991,0.21145077574811088628,70,70,-0.0049610473215579986572,0,0
8.8692048448000071286e-05,2.7579565837102872905,0.11597772381908229289,0.28355195342868960706,5.5804216660912002723,0.9092533442203764027,2.8646850460103601144,0.2154002723146503373,71,71,-0.0048010135069489479065,0,0
0.00010005320879436115349,2.7242232302412827671,0.1186490821384977995,0.29222625168245769389,5.5908019652348581729,0.91192311463937025806,2.8647395374902089316,0.21995252752735869328,72,72,-0.0046409796923398971558,0,0
0.0001131653802321957368,2.6865732916274565056,0.12173807562696285778,0.30136295724286860098,5.6028817997751332314,0.91501028889644042685,2.8648101064525079984,0.22519236139595275037,73,73,-0.004480945877730846405,0,0
0.00012828454281208479773,2.6447787835356653119,0.12530654720853154349,0.31096037749973309827,5.6169370694714482184,0.91857682053521694243,2.864901311429345121,0.23121334047736211148,74,74,-0.0043209120631217956543,0,0
0.00014569878952811290453,2.5986636962588143263,0.12942369864696062765,0.32101509757251978083,5.6332826828544337872,0.9226917808870342963,2.8650177189873451411,0.23811729754954918947,75,75,-0.0041608782485127449036,0,0
0.00016573021136293832837,2.5481260543769916893,0.13416596410376019355,0.33152164845448839348,5.6522765977954074756,0.92743175571276215141,2.8651653205554374892,0.24601275969938940502,76,76,-0.0040008444339036941528,0,0
0.00018873591058194834585,2.4931598509112093964,0.1396162713570784919,0.34247202944624111076,5.6743171624010999565,0.93287948489307970235,2.8653494111294151026,0.25501229035758271602,77,77,-0.003840810852125287056,0,0
0.00021510761944843736766,2.4338809637121805451,0.14586226691237913489,0.35385506849763787018,5.6998407167854487909,0.93912280005557446927,2.8655759994067473428,0.26522772653448678515,78,78,-0.0036807770375162363052,0,0
0.00024526924083133111367,2.3705496990155960901,0.15299307640705336886,0.36565561250541683824,5.7293064771768760224,0.94625048104687548012,2.86584812591358018,0.27676324005132241224,79,79,-0.0035207432229071855545,0,0
0.00027967146683054009857,2.3035941816681448913,0.16109398085693940605,0.37785355466979803074,5.7631773116297146942,0.95434797489393019543,2.8661670930590248396,0.28970501648093260894,80,80,-0.0033607094082981348038,0,0
0.00031878253311766029934,2.2336232458333045159,0.17023850531612552683,0.39042273682022876624,5.8018791304483556814,0.96348810235600801377,2.8665263790113026943,0.30410797109612991429,81,81,-0.003200675593689084053,0,0
0.00036307421342782734584,2.16143261469600656,0.18047773270603029161,0.40332981154606228902,5.8457545341049081955,0.97372206604918520867,2.8669138373119213981,0.31997918979954381724,82,82,-0.0030406417790800333023,0,0
0.00041300249960042622905,2.087987161511920764,0.19182734897507361382,0.41653321860168091018,5.8949945369921454841,0.98506435581533668966,2.8673044203739732616,0.33726074977958475642,83,83,-0.0028806079644709825516,0,0
0.00046898317761135776931,2.0143855203623703964,0.20425450640378453593,0.42998250785568259413,5.9495827638042610985,0.99748258733444938873,2.8676686223649134888,0.35581464550531483049,84,84,-0.0027205743826925754547,0,0
0.00053136379488108074435,1.9417897016749054995,0.21766727884787193115,0.44361830909987948202,6.0092410150660011681,1.0108834439423315388,2.867967796665402247,0.37541550757848501929,85,85,-0.002560540568083524704,0,0
0.00060039516450490838014,1.871341374799019075,0.23191169457293034362,0.45737325823113123002,6.0734252497086158584,1.0251146539154984971,2.8681735708604341184,0.39575612206370480717,86,86,-0.0024005067534744739532,0,0
0.00067620711915514014004,1.8040580872174813987,0.24677819138771739382,0.47117409692754352868,6.1413497646368471194,1.0399651944988494989,2.8682619597023064628,0.41646799107370691129,87,87,-0.0022404729388654232025,0,0
0.00075879393915736874626,1.7407488820491019421,0.26202159071371916577,0.48494494368485513425,6.2120712226547611934,1.0551929790514151808,2.8682360037170995248,0.43715891128559569712,88,88,-0.0020804391242563724518,0,0
0.00084801387219048259773,1.6819459647160126536,0.27738719937238115465,0.49861140867990583203,6.2845988872942948333,1.0705408667283176083,2.8681070913760779995,0.4574541109249641857,89,89,-0.001920405426062643528,0,0
0.00094360443416672743194,1.6278838802330293234,0.2926450748442396832,0.51210494018836716368,6.3580023691432216992,1.0857826018174896454,2.8679091253075932322,0.4770448560171094976,90,90,-0.0017603716114535927773,0,0
