"epsilon","mach_number","pressure","rad_temp","rho","rhoE","rhou","temperature","GlobalNodeId","PedigreeNodeId","Points:0","Points:1","Points:2"
1.6527076912259922877e-05,1.0499761857594731573,0.09916089895672798582,0.18629898304231964912,5.5165852011770031282,0.23984533521093337471,1.0025796190258866591,0.18629826417917139114,1,1,-0.023103788495063781738,0,0
1.652708735540179145e-05,1.0499733730822675692,0.099161312274858054439,0.18629901247199828762,5.5165980020782559023,0.23984584680915729815,1.0025801858936120858,0.1862986084048455504,2,2,-0.022795738652348518372,0,0
1.6527112384671738363e-05,1.0499708994716472343,0.099161545591496605412,0.18629908300659286935,5.5166047778561955184,0.23984598187898698018,1.0025796191090006193,0.18629881792473826363,3,3,-0.022487686946988105774,0,0
1.6527146832813095903e-05,1.0499699536125135513,0.099161730499679426321,0.18629918008423082543,5.5166106661575868841,0.23984626498419150953,1.0025801857745182399,0.18629896646786334169,4,4,-0.022179637104272842407,0,0
1.652718868830027103e-05,1.0499682181240272971,0.09916187358131720031,0.18629929803616190886,5.5166147078231535517,0.23984630989609417862,1.0025796192190901124,0.18629909879149419982,5,5,-0.021871587261557579041,0,0
1.6527237394142500418e-05,1.0499674666482037289,0.099162034652434366544,0.18629943529263004454,5.5166198769659189338,0.23984656908174367684,1.0025801856613407725,0.18629922683688970864,6,6,-0.021563535556197166443,0,0
1.6527293174551404203e-05,1.0499656581670491207,0.099162186715668690362,0.18629959248534894156,5.5166241883622024744,0.23984662305307566377,1.0025796193318563532,0.18629936692518819785,7,7,-0.021255485713481903076,0,0
1.6527356621833930639e-05,1.0499646840967271633,0.099162374954728557674,0.18629977128331873248,5.5166301825985994967,0.23984690932414162723,1.002580185549849956,0.18629951814754858175,8,8,-0.020947435870766639709,0,0
1.6527428620946741847e-05,1.0499625628911419817,0.099162565323285295493,0.18629997418019816902,5.5166356515854051423,0.23984700167800837578,1.0025796194451497279,0.18629969110828326073,9,9,-0.020639384165406227112,0,0
1.652751021610114203e-05,1.0499612023223163781,0.09916280077900868628,0.1863002041183719204,5.5166430779653055083,0.23984733508298586302,1.0025801854402012214,0.18629988267300781613,10,10,-0.020331334322690963745,0,0
1.652760266625290719e-05,1.0499586326917047518,0.099163046051197384356,0.1863004646453023383,5.51665020716140031,0.23984748241657177781,1.0025796195589320448,0.18630010271570404679,11,11,-0.020023284479975700378,0,0
1.6527707375888495557e-05,1.0499567549703689995,0.099163344705285413894,0.18630075971845680427,5.5166595496274934973,0.23984787893682840698,1.0025801853332316771,0.18630034830435232562,12,12,-0.019715232774615287781,0,0
1.6527825982022219351e-05,1.0499535997076343552,0.099163661663762878162,0.18630109395043548126,5.5166688472704761281,0.23984809803126405647,1.0025796196736729282,0.18630062979466663342,13,13,-0.019407182931900024414,0,0
1.6527960304073517357e-05,1.0499510543209504831,0.099164041927508259078,0.1863014724676836098,5.5166806633613987287,0.23984857607766471577,1.002580185230365295,0.18630094516739445498,14,14,-0.019099131226539611816,0,0
1.6528112442026553864e-05,1.0499471453397852816,0.099164451132500192054,0.18630190118705233782,5.5166927521123181322,0.23984888749120761298,1.0025796197905096907,0.18630130570314407112,15,15,-0.01879108138382434845,0,0
1.6528284737187880178e-05,1.0499437428984939036,0.099164936173468776204,0.18630238670514695509,5.5167077434245959111,0.2398494702307640003,1.0025801851339044557,0.18630171068999593076,16,16,-0.018483031541109085083,0,0
1.6528479878411410126e-05,1.0499388663012603207,0.099165463789788937943,0.1863029365975784335,5.5167234157084790169,0.23984990012570250872,1.0025796199114100915,0.18630217266426341016,17,17,-0.018174979835748672485,0,0
1.6528700873832310585e-05,1.0499343646840040289,0.09916608322740531889,0.1863035593392001199,5.5167424792636081676,0.23985061717712918838,1.0025801850475251076,0.18630269261538620618,18,18,-0.017866929993033409119,0,0
1.6528951166120142035e-05,1.0499282464913732849,0.099166762770902819324,0.18630426462873955762,5.5167627501863822914,0.23985119906606602869,1.0025796200397680824,0.18630328470976634248,19,19,-0.017558880150318145752,0,0
1.6529234617565132512e-05,1.0499223353401034853,0.099167554574258909295,0.18630506334659058254,5.516787035937921857,0.23985208839755062238,1.0025801849770477059,0.18630395211777012188,20,20,-0.017250828444957733154,0,0
1.6529555636653241657e-05,1.0499146242421815156,0.099168429023269832889,0.18630596791125067502,5.516813207278671527,0.23985286525466562035,1.0025796201814769493,0.18630471110679996949,21,21,-0.016942778602242469788,0,0
1.6529919179995772912e-05,1.0499069055728451616,0.099169441884984790847,0.18630699228445818383,5.5168441900633382602,0.23985397555766338473,1.0025801849319191383,0.18630556763501224249,22,22,-0.016634728759527206421,0,0
1.6530330893394897863e-05,1.0498971510483514624,0.099170566359471204465,0.18630815236830083892,5.5168779314912033129,0.23985500249760413616,1.0025796203465486833,0.18630654067455362788,23,23,-0.016326677054166793823,0,0
1.6530797135128863002e-05,1.0498871145066315247,0.099171862726054021975,0.18630946607033477269,5.5169175029041879199,0.23985639621714174852,1.0025801849274946775,0.18630763974466504895,24,24,-0.016018627211451530457,0,0
1.6531325135603026292e-05,1.0498747388304279227,0.099173307916154668229,0.18631095375280076754,5.5169609559480896621,0.23985774392322584125,1.0025796205518151538,0.18630888729838165907,25,25,-0.015710575506091117859,0,0
1.6531923047699291257e-05,1.0498617300153152421,0.099174967868739014043,0.18631263837368158831,5.5170115420429706177,0.23985950113854515031,1.0025801849885802586,0.18631029740170870768,26,26,-0.015402525663375854492,0,0
1.6532600130242101661e-05,1.0498459924131329224,0.099176824426990051187,0.18631454600259395038,5.5170674533381571791,0.23986126025458021083,1.0025796208254371678,0.18631189698689956669,27,27,-0.01509447488933801651,0,0
1.6533366832577429061e-05,1.0498291723123129859,0.09917895065331532034,0.18631670605776140537,5.5171321654950631341,0.23986348365101592406,1.0025801851555715682,0.18631370592257931462,28,28,-0.014786425046622753143,0,0
1.6534235008490608218e-05,1.0498091230645107963,0.099181334821413363878,0.18631915190700906737,5.5172040575727461231,0.23986577040752360412,1.0025796212143953667,0.18631575690353974206,29,29,-0.014478374272584915161,0,0
1.6535218043964096298e-05,1.0497874161307279017,0.099184058983900494355,0.18632192122551949343,5.5172868858445154316,0.23986859164443458114,1.0025801854942013591,0.18631807719997819928,30,30,-0.014170323498547077179,0,0
1.6536331109919300583e-05,1.0497618378367032932,0.099187119798468573184,0.18632505670507215623,5.5173792759969790822,0.2398715550637485483,1.0025796217967071211,0.18632070691777621874,31,31,-0.013862273655831813812,0,0
1.6537591344255139672e-05,1.0497338655607775237,0.099190610687360472597,0.18632860656329272575,5.5174853368454028768,0.23987514292750458655,1.0025801861118408542,0.18632368276253788442,32,32,-0.01355422288179397583,0,0
1.6539018153893687157e-05,1.0497011980240305018,0.099194539203240575387,0.18633262538993519697,5.5176040175151106482,0.2398789740462019815,1.0025796227017567119,0.18632705436667593157,33,33,-0.013246172107756137848,0,0
1.6540633464755257696e-05,1.0496651940204364539,0.099199013169231117781,0.18633717484516740259,5.5177398711229708184,0.23988354488260163477,1.0025801871837913826,0.18633087045544846627,34,34,-0.012938121333718299866,0,0
1.6542462086081890631e-05,1.0496234382678539809,0.099204054258196450178,0.18634232467826292168,5.5178922689867109241,0.23988848854914160413,1.0025796241434883349,0.18633519289871838809,35,35,-0.012630071491003036499,0,0
1.6544532044946781598e-05,1.0495771398341013914,0.099209788552618166646,0.18634815366016882487,5.5180663255237121234,0.23989431960338472583,1.0025801889968974923,0.18634008572001720117,36,36,-0.012322020716965198517,0,0
1.6546875028686634942e-05,1.0495237356199991208,0.099216255983457818379,0.18635475081728283819,5.5182619611032839302,0.2399006895568211728,1.0025796264751711817,0.18634562649418842661,37,37,-0.012013969942927360535,0,0
1.6549526823789698245e-05,1.0494642454331701842,0.099223605800255326725,0.18636221665175292661,5.5184850005762422498,0.23990813601520646903,1.0025801920202892514,0.18635189869557325371,38,38,-0.011705920100212097168,0,0
1.6552527855337781761e-05,1.0493959151285785492,0.099231901493159288541,0.18637066464047660763,5.5187360761641945928,0.23991633413788557294,1.0025796302792175929,0.1863590000283917858,39,39,-0.011397869326174259186,0,0
1.6555923753439243589e-05,1.0493195251545854862,0.099241321713378211067,0.18638022280443208856,5.5190219131141322606,0.23992585087201434568,1.0025801970216747794,0.18636703866466736157,40,40,-0.011089818552136421204,0,0
1.6559766011545279884e-05,1.0492320751881338836,0.099251960289194127163,0.18639103552949701226,5.5193440641689939241,0.23993639173672376419,1.0025796365144157285,0.18637613806571573516,41,41,-0.010781767778098583221,0,0
1.656411270649482868e-05,1.0491340429718469807,0.09926403318190986369,0.18640326555189448698,5.5197103967507050726,0.23994856100417247258,1.0025802052572760914,0.18638643771076263134,42,42,-0.010473717935383319855,0,0
1.6569029299749672197e-05,1.0490221119185401122,0.099277673205442298898,0.18641709616059384813,5.5201236511315245892,0.23996210311485460798,1.0025796467567484882,0.18639809394664233477,43,43,-0.010165667161345481873,0,0
1.657458953866557355e-05,1.0488963772071362435,0.09929314364238328583,0.18643273366657903134,5.5205931442924240926,0.23997766977360299179,1.0025802187816437172,0.18641128585198663004,44,44,-0.0098576163873076438904,0,0
1.658087642483149917e-05,1.0487531172616648689,0.099310627288633421261,0.18645041004237339344,5.5211231449568227703,0.23999505522847236483,1.002579663592764847,0.18642621163939629425,45,45,-0.0095495656132698059082,0,0
1.6587983322667444703e-05,1.0485919444278191115,0.099330447386105413798,0.1864703859328327995,5.521724809831942693,0.24001497137882013555,1.0025802409521546998,0.18644310033358008072,46,46,-0.0092415157705545425415,0,0
1.6596015114898100975e-05,1.0484086204359448491,0.099352850638199513567,0.18649295376861221851,5.5224043701737297596,0.24003727606463184929,1.0025796912600002386,0.18646220324433396276,47,47,-0.0089334649965167045593,0,0
1.660508953703788366e-05,1.0482021496008016026,0.099378236137966188823,0.18651844134633535632,5.5231753164835835079,0.24006275743051447291,1.0025802772487801828,0.1864838121555213446,48,48,-0.0086254142224788665771,0,0
1.6615338527711914752e-05,1.0479676373396742406,0.099406932035424874772,0.18654721540775887068,5.5240463932133154756,0.24009135426660496715,1.0025797366860556004,0.18650824538548926856,49,49,-0.0083173643797636032104,0,0
1.6626909788975865318e-05,1.0477033248162532786,0.099439433149123429567,0.18657968575227557029,5.5250340481493029898,0.24012395104118580691,1.0025803365993117833,0.18653587317926625944,50,50,-0.0080093136057257652283,0,0
1.663996831220623999e-05,1.0474034883429237386,0.099476171003050173347,0.18661630918286306602,5.5261502339828441066,0.24016058919011001871,1.0025798111662405088,0.18656709786555794595,51,51,-0.0077012628316879272461,0,0
1.665469812618805418e-05,1.047065415833083879,0.099517760802098689799,0.18665759398972897598,5.5274151385921452828,0.24020227442828015474,1.0025804335118140287,0.18660238710742327317,52,52,-0.0073932125233113765717,0,0
1.6671303926995905765e-05,1.0466823435800789444,0.099564764576056966061,0.18670410399756920405,5.528844793989673434,0.24024917767218664788,1.0025799330550326793,0.18664224763222467263,53,53,-0.0070851617492735385895,0,0
1.669001290492442771e-05,1.0462503769775464146,0.099617948165497904878,0.18675646303833892681,5.5304641033780752579,0.24030245646942491322,1.0025805914793488594,0.18668726690863124418,54,54,-0.006777111440896987915,0,0
1.6711076312239811563e-05,1.0457614599445994585,0.099678037180754797131,0.18681535854595476831,5.5322942585561358797,0.2403624439116177347,1.00258013204384544,0.18673807983478424299,55,55,-0.0064690606668591499329,0,0
1.6734771135238881356e-05,1.0452102454705853862,0.099745984557907049761,0.18688154526310837844,5.5343660783930603841,0.24043048627175814258,1.0025808483573539487,0.18679541923790302094,56,56,-0.0061610103584825992584,0,0
1.6761401270892806496e-05,1.0445870922651110391,0.099822718901060938923,0.18695584735293768741,5.5367072334080038587,0.24050711774296243406,1.0025804558720654569,0.18686007469806023562,57,57,-0.005852960050106048584,0,0
1.6791298599848788174e-05,1.0438848954202575303,0.09990942296978176651,0.18703915998187356506,5.5393559066239079769,0.24059391660823573056,1.002581264722792298,0.18693295194904943624,58,58,-0.0055449092760682106018,0,0
1.682482317361724258e-05,1.0430921055123740793,0.10000727360948029332,0.18713244816412244464,5.5423478153717802286,0.2406916627865349767,1.0025809806470467045,0.18701502258923694,59,59,-0.0052368589676916599274,0,0
1.6862362903269713409e-05,1.0421995372827570492,0.10011773109061737619,0.18723674393168190933,5.5457301954914699493,0.24080221497429468713,1.0025819365479498035,0.18710739188109970499,60,60,-0.0049288081936538219452,0,0
1.6904331731537292581e-05,1.041193410086429072,0.10024226900957383668,0.18735313899364114398,5.5495485881493724634,0.24092664652855100282,1.0025818262167696115,0.18721123726824087652,61,61,-0.0046207578852772712708,0,0
1.6951166624267627325e-05,1.0400621655088722051,0.10038267341415463285,0.18748277384706824034,5.5538611224737319816,0.24106714574633777981,1.0025830136326594477,0.18732788299267558174,62,62,-0.0043127071112394332886,0,0
1.7003322059866510452e-05,1.0387895383024203788,0.10054075927630187759,0.18762681974080711034,5.5587249830199780831,0.24122512302713572385,1.002583177813613613,0.1874587237392478789,63,63,-0.0040046568028628826141,0,0
1.7061262247396583768e-05,1.0373614379983140399,0.10071867607275572509,0.1877864542674324011,5.5642108996395727161,0.24140313510247546347,1.002584724373866143,0.1876053024102626865,64,64,-0.0036966062616556882858,0,0
1.7125449384274322594e-05,1.0357590848755939827,0.10091860348289714844,0.1879628261376060927,5.5703890881191249207,0.24160295144046153859,1.0025853131569251175,0.18776921206884400473,65,65,-0.0033885557204484939575,0,0
1.7196328055108542847e-05,1.0339660601195712619,0.10114305462976028172,0.18815700976941013289,5.5773436831118301527,0.24182749893613739167,1.002587403329527449,0.18795216892713420553,66,66,-0.0030805051792412996292,0,0
1.7274303723897128162e-05,1.03196160550926197,0.10139453423226296724,0.18836994456720076996,5.5851576349430072099,0.24207886478426227095,1.0025886263745165117,0.18815587904043842848,67,67,-0.0027724546380341053009,0,0
1.7359715433891604214e-05,1.0297280638162396027,0.10167581623817151248,0.18860235991432985903,5.5939263374058283418,0.24236024513286971716,1.0025915036030408345,0.18838208857977145616,68,68,-0.0024644040968269109726,0,0
1.745280064475537404e-05,1.0272446233798149251,0.10198952173146182132,0.18885468113899273046,5.6037400791771485586,0.2426738340680871242,1.0025936137090423195,0.18863238480670405095,69,69,-0.0021563535556197166443,0,0
1.755365313312456921e-05,1.0244957167712385182,0.10233830209688901669,0.18912692011070247888,5.6146945448481639929,0.24302271594570673541,1.0025975272468770072,0.18890817658659192491,70,70,-0.0018483031308278441429,0,0
1.766217346535674132e-05,1.0214660713685992377,0.10272421290861506737,0.18941855036686836011,5.626866590439747462,0.24340850701810015644,1.0026006950457038158,0.18921034912970383091,71,71,-0.0015402525896206498146,0,0
1.7778016785028995722e-05,1.018151387179585754,0.10314862877055806789,0.18972838071399211746,5.6403155466353309677,0.24383302829384417842,1.0026056475007589786,0.18953906806704953758,72,72,-0.0012322020484134554863,0,0
1.7900543382785820418e-05,1.0145557182625253301,0.10361124941708743652,0.19005444255970274647,5.6550463472993364178,0.24429552411990301808,1.0026095241393653268,0.18989320533631270926,73,73,-0.00092415156541392207146,0,0
1.8028784804626878509e-05,1.0107039605483731926,0.10410978297641074186,0.19039392451101033732,5.6710021183762329144,0.24479416551179919437,1.0026146575426575502,0.1902700423463008772,74,74,-0.00061610102420672774315,0,0
1.8161437045019977168e-05,1.0066380108757064793,0.10463899797741046949,0.19074318254838829034,5.6880277042504578944,0.24532324578390410363,1.0026177576663251045,0.19066481323818981752,75,75,-0.00030805051210336387157,0,0
1.8296893953407995104e-05,1.0024248674211893029,0.10519097670475201223,0.19109785614633309492,5.7058798730312458858,0.24587533095761004986,1.0026210969207034474,0.191070898842369441,76,76,0,0,0
1.8433323106099985399e-05,0.99814490964355884195,0.10575510145533172091,0.19145309041049313192,5.7242211393630277882,0.24643930616673259681,1.0026213146675542198,0.19148008263440843835,77,77,0.00030805051210336387157,0,0
1.856878036836575807e-05,0.99389201292888729178,0.10631944709565362139,0.19180384853123219613,5.7426675413280321436,0.24700375555535175609,1.0026212032800854157,0.19188353826329485052,78,78,0.00061610102420672774315,0,0
1.8701345047216008253e-05,0.98975518699416464852,0.10687164959194590808,0.19214526334652637374,5.760812531578316964,0.24755579450790929363,1.0026178355499770767,0.19227262406681180917,79,79,0.00092415156541392207146,0,0
1.8829255950078228529e-05,0.98581677177041826532,0.1074007510717449182,0.19247297622317907639,5.7782910509140936739,0.24808500130606547796,1.0026147727700136514,0.19264005266372324909,80,80,0.0012322020484134554863,0,0
1.8951023278743670642e-05,0.9821361437228824931,0.10789783642551815934,0.19278340135233268393,5.7947977970061481656,0.24858191517924696501,1.0026093597401177782,0.19298036927800527041,81,81,0.0015402525896206498146,0,0
1.9065502274351387623e-05,0.97875470485058679859,0.10835713575421838939,0.1930738847611450093,5.8101285223221132981,0.24904132710844403831,1.0026054433557756163,0.19329047822466186024,82,82,0.0018483031308278441429,0,0
1.9171919029909899394e-05,0.97568755943231300076,0.10877553940174915226,0.19334273986182343164,5.8241629189029593405,0.24945955710229889002,1.0026000749597459016,0.19356927069964122157,83,83,0.0021563535556197166443,0,0
1.9269855658453330149e-05,0.97293655370165477159,0.10915266227720181458,0.19358918325052754117,5.8368719832816946536,0.24983680261934729239,1.0025969348299357264,0.19381743764069839231,84,84,0.0024644040968269109726,0,0
1.9359203815143174028e-05,0.97048635777696723448,0.10948963157612984221,0.193813196900509771,5.8482767203119951915,0.25017359893297064222,1.0025926266509825879,0.19403664813067622585,85,85,0.0027724546380341053009,0,0
1.944010465167805374e-05,0.96831902897745047998,0.10978894643951253585,0.19401536350371315076,5.8584472906096944911,0.25047304625718735949,1.0025906978866774288,0.19422931290724249065,86,86,0.0030805051792412996292,0,0
1.9512884451422492845e-05,0.96640820129521254334,0.11005341311474922672,0.19419669764225969133,5.8674655543417193471,0.25073734137424580348,1.0025874986732139504,0.19439793641754593567,87,87,0.0033885557204484939575,0,0
1.9577997577855447796e-05,0.96473141904350956377,0.11028633404462545586,0.19435850049989220056,5.8754336115740084523,0.25097040304599371741,1.0025865940162979051,0.1945451734360839624,88,88,0.0036966062616556882858,0,0
1.9635976918072598385e-05,0.9632616513995991836,0.11049074553847768043,0.19450223691454829322,5.8824460568705081442,0.25117464433005465274,1.0025842301289378256,0.19467340892663786978,89,89,0.0040046568028628826141,0,0
1.9687396379199929695e-05,0.96197828591913125962,0.11066983011931925962,0.19462944466904699703,5.8886051565277268693,0.25135387616985777059,1.0025840430955075266,0.19478499186606532123,90,90,0.0043127071112394332886,0,0
