"epsilon","mach_number","pressure","rad_temp","rho","rhoE","rhou","temperature","GlobalNodeId","PedigreeNodeId","Points:0","Points:1","Points:2"
1.6527076857342304573e-05,1.0499765208584852516,0.099160901851992236389,0.18629898288755700198,5.5165855129800602796,0.23984540036525592299,1.0025799819675074165,0.18629825908887229224,1,1,-0.023103788495063781738,0,0
1.6527085164331647797e-05,1.0499734119356403106,0.099161263642616015446,0.18629900629737392026,5.5165963052363755637,0.23984573592409455522,1.0025798229596170064,0.18629857434065907884,2,2,-0.022831980139017105103,0,0
1.6527105440909681998e-05,1.0499716031931003446,0.099161503390101560229,0.18629906343849353401,5.516603724671016451,0.23984600192553459652,1.0025799820251148908,0.18629877420590773562,3,3,-0.022560169920325279236,0,0
1.6527133651220020946e-05,1.0499701485354211439,0.099161662789032906096,0.18629914293745736265,5.5166083911769936421,0.23984613503547858038,1.0025798228751965357,0.18629891608458204466,4,4,-0.0222883615642786026,0,0
1.6527167978488780802e-05,1.0499690923722933,0.099161810515461579207,0.1862992396743735346,5.5166130231913657056,0.23984630906728174327,1.0025799820996836864,0.18629903719824536523,5,5,-0.022016551345586776733,0,0
1.6527207725206247325e-05,1.0499679194935689353,0.099161935406401863213,0.186299351683529818,5.5166166466191262074,0.23984640761365624839,1.0025798227974453969,0.18629914947036027573,6,6,-0.021744742989540100098,0,0
1.6527252823050187338e-05,1.0499668969811188912,0.099162079051814580599,0.18629947877230718101,5.5166211536439853091,0.23984657761628652706,1.002579982176238893,0.1862992671374621434,7,7,-0.021472932770848274231,0,0
1.6527303521699072909e-05,1.0499656163940540576,0.099162217077210221272,0.1862996216442214803,5.5166251764251708067,0.23984668924164778692,1.0025798227207058932,0.18629939059902483889,8,8,-0.021201124414801597595,0,0
1.6527360299939619176e-05,1.0499644025650307633,0.099162384159678484963,0.18629978164840926835,5.5166303916253163209,0.23984688273305346251,1.0025799822537451167,0.18629952838223856615,9,9,-0.020929314196109771729,0,0
1.6527423759135104973e-05,1.0499628696773728453,0.099162553005898990133,0.18629996047940564075,5.516635349266767463,0.23984702512340894121,1.0025798226442825811,0.18629967817669837449,10,10,-0.020657505840063095093,0,0
1.6527494639016340408e-05,1.049961357247519933,0.099162756648301778051,0.18630016022163450873,5.516641669997641273,0.23984725522614311344,1.002579982332299835,0.18629984731121962405,11,11,-0.020385695621371269226,0,0
1.6527573765445039973e-05,1.049959479773912685,0.099162967603415003159,0.18630038320219208248,5.5166479043064224896,0.2398474396689800614,1.0025798225681570308,0.18630003310244980241,12,12,-0.02011388726532459259,0,0
1.652766209472054392e-05,1.0499575797009268463,0.099163218697312469074,0.18630063211569153347,5.5166556603863865504,0.23984771727415848952,1.0025799824123209358,0.18630024291195318442,13,13,-0.019842077046632766724,0,0
1.6527760677230497087e-05,1.0499552653345871622,0.09916348305207998981,0.18630090992181339016,5.5166635132700578836,0.23984795505947686944,1.002579822492596362,0.18630047436522678694,14,14,-0.019570268690586090088,0,0
1.652787071101153736e-05,1.0499528782054814435,0.099163793757775009485,0.18630121999622020756,5.5166730729539334988,0.23984829232683030353,1.0025799824944257033,0.18630073525866630568,15,15,-0.019298458471894264221,0,0
1.65279935118379941e-05,1.0499500178100753534,0.099164124861814723078,0.18630156604624145689,5.5166829486806419069,0.23984859680330677945,1.002579822418184774,0.18630102380093999104,16,16,-0.019026650115847587585,0,0
1.6528130571540438601e-05,1.0499470227632159425,0.099164509963627522904,0.18630195227518364653,5.5166947597016928739,0.23984900851643997655,1.0025799825796628539,0.18630134843255491406,17,17,-0.018754839897155761719,0,0
1.6528283532657491307e-05,1.0499434819095780913,0.099164924260875100814,0.18630238331086110271,5.5167071562614911073,0.23984939612681921428,1.0025798223457915714,0.18630170813850355227,18,18,-0.018483031541109085083,0,0
1.6528454250939003016e-05,1.0499397291712417868,0.099165402080409581487,0.18630286438167931173,5.5167217734962168407,0.23984990060645489107,1.0025799826695844796,0.1863021121890538756,19,19,-0.018211221322417259216,0,0
1.6528644774772468238e-05,1.0499353408142595434,0.099165920005299432183,0.18630340125859981559,5.5167373097515062241,0.23985039178369246815,1.0025798222769417567,0.18630256054750374273,20,20,-0.017939412966370582581,0,0
1.6528857412451146197e-05,1.0499306440376225957,0.099166513339059375598,0.18630400044462200326,5.5167554236286093783,0.23985101182523316243,1.0025799827665378139,0.18630306352595615849,21,21,-0.017667602747678756714,0,0
1.652909471728828688e-05,1.0499252002272456696,0.099167160331087023106,0.18630466913274359997,5.5167748700575289789,0.23985163200698633723,1.0025798222140553939,0.18630362230718447436,22,22,-0.017395794391632080078,0,0
1.6529359560704215919e-05,1.0499193273754183764,0.099167897566513285579,0.1863054154117950445,5.5167973403803172161,0.23985239599650137743,1.0025799828741450703,0.18630424850453247698,23,23,-0.017123984172940254211,0,0
1.6529655124323378284e-05,1.0499125691517221526,0.099168705307314974906,0.18630624824402630679,5.5168216565702934417,0.23985317686211207744,1.0025798221609472094,0.18630494481734105605,24,24,-0.016852175816893577576,0,0
1.6529984980273813844e-05,1.0499052312580947621,0.099169621798972068527,0.18630717769119642391,5.5168495542316566826,0.23985412015246157513,1.0025799829979167299,0.18630572448224147486,25,25,-0.016580365598201751709,0,0
1.6530353091906505183e-05,1.0498968361293428142,0.099170629745689256596,0.18630821491637727938,5.5168799353642645755,0.23985510115622271643,1.0025798221237209873,0.18630659208353303469,26,26,-0.016308557242155075073,0,0
1.6530763903054439029e-05,1.0498876733373534442,0.099171769525018632629,0.18630937243518427837,5.5169145941860540105,0.23985626777673002552,1.0025799831463373391,0.18630756288209998628,27,27,-0.016036747023463249207,0,0
1.653122234940203813e-05,1.0498772397111884036,0.099173026817319487325,0.18631066414746616511,5.5169525288661986906,0.2398574980547612534,1.0025798221119446296,0.1863086438045810922,28,28,-0.015764938667416572571,0,0
1.6531733958866852869e-05,1.0498658039104742379,0.09917444471995132127,0.18631210561971425776,5.5169956101206878429,0.23985894283842038033,1.0025799833324351429,0.18630985263541882668,29,29,-0.01549312938004732132,0,0
1.653230487611117349e-05,1.0498528317300472867,0.099176012552808459621,0.18631371415359049282,5.5170429523554824769,0.2398604835812868652,1.0025798221406636568,0.18631119921129454808,30,30,-0.015221320092678070068,0,0
1.6532941976713150435e-05,1.049838564961366183,0.099177776865367911485,0.18631550910694089085,5.5170965250745016561,0.23986227481145167006,1.0025799835762951862,0.18631270446187148115,31,31,-0.014949510805308818817,0,0
1.6533652907868794221e-05,1.0498224316220674535,0.099179731441487242738,0.18631751200764246068,5.5171555838765540258,0.23986420221637055894,1.0025798222333468512,0.18631438183850621004,32,32,-0.014677701517939567566,0,0
1.6534446219622512132e-05,1.0498046392224471557,0.09918192719477036956,0.18631974692229763546,5.5172222248244260356,0.23986642491978166225,1.0025799839089086785,0.18631625618951319634,33,33,-0.014405892230570316315,0,0
1.6535331425474504325e-05,1.0497845696332792631,0.099184363396995905982,0.18632224062570026946,5.5172958757290571086,0.23986883386278684549,1.0025798224268378522,0.18631834545480605025,34,34,-0.014134082943201065063,0,0
1.6536319154665087087e-05,1.0497623868606080766,0.099187096461397103453,0.18632502302825462714,5.5173787938062499592,0.23987159390480525256,1.0025799843781468823,0.18632067936310248157,35,35,-0.013862273655831813812,0,0
1.6537421237187964349e-05,1.0497374162420924915,0.099190132419359811067,0.18632812741348195318,5.5174706176394847645,0.23987460250706232889,1.0025798227783979666,0.18632328142616655375,36,36,-0.013590464368462562561,0,0
1.6538650881973277867e-05,1.0497097668139734328,0.099193534596610608012,0.18633159093749043778,5.5175738086726546783,0.23987803168319027369,1.0025799850578567263,0.18632618744779991249,37,37,-0.01331865508109331131,0,0
1.6540022791723340108e-05,1.0496786945002534175,0.099197317362781214922,0.18633545494938444365,5.5176882641840387933,0.23988178698667000921,1.0025798233772678092,0.18632942785335493419,38,38,-0.013046845793724060059,0,0
1.654155337282418677e-05,1.0496442391266993521,0.09920155271289077259,0.18633976557871206881,5.5178167034545468894,0.23988604934920718104,1.0025799860622102155,0.18633304600412320395,39,39,-0.012775036506354808807,0,0
1.6543260886462102488e-05,1.0496055712417491357,0.099206265313547425944,0.18634457415635949373,5.517959341999941536,0.2398907343671768666,1.0025798243622077166,0.18633708089920664186,40,40,-0.012503227218985557556,0,0
1.6545165697201400694e-05,1.0495626437927729757,0.099211538011725317054,0.1863499379087579233,5.5181192236217242453,0.23989603408182239019,1.0025799875678029771,0.1863415852941695261,41,41,-0.012231417931616306305,0,0
1.6547290467987511869e-05,1.0495145221911483802,0.099217408199749723696,0.18635592049975108209,5.5182969560262682407,0.23990187655104822095,1.0025798259487661568,0.18634660881336739813,42,42,-0.011959608644247055054,0,0
1.6549660455523706429e-05,1.0494610506147230566,0.099223972285717401687,0.18636259285330572522,5.5184959904311110535,0.23990846764580597839,1.0025799898475067362,0.18635221587867073501,43,43,-0.011687799356877803802,0,0
1.6552303757961675339e-05,1.0494011649022358945,0.099231283396716885026,0.18637003383971106896,5.5187174185456520092,0.23991575088198932586,1.0025798284714744213,0.18635846927051077926,44,44,-0.011415990069508552551,0,0
1.6555251666413084758e-05,1.0493345733852110779,0.099239454860283432547,0.18637833125131650358,5.518965201961655076,0.23992394933227928489,1.0025799933233934258,0.18636544788123365901,45,45,-0.0111441807821393013,0,0
1.6558538975264009557e-05,1.0492600521663069113,0.099248559261722241187,0.18638758265887320209,5.5192410302870555938,0.23993302567832380801,1.0025798324489814117,0.18637323076250977838,46,46,-0.010872371494770050049,0,0
1.6562204400217788564e-05,1.0491771403059113599,0.099258731005178055251,0.18639789656689528807,5.5195495032558294923,0.23994322436883191996,1.0025799986476842118,0.18638191472905552004,47,47,-0.010600562207400798798,0,0
1.6566290962031432688e-05,1.0490844170136701674,0.09927006673498670053,0.18640939346726675963,5.5198930495469253898,0.23995453183245979423,1.0025798386847022403,0.186391598927440727,48,48,-0.010328752920031547546,0,0
1.6570846482130699375e-05,1.0489812109313851884,0.099282727067444065394,0.18642220720127877787,5.5202770653726274119,0.23996721905085574567,1.0025800068280894539,0.18640240232893698358,49,49,-0.010056943632662296295,0,0
1.6575924050807147624e-05,1.0488658587255392796,0.099296838380216467801,0.18643648623665678987,5.5207048932683138176,0.23998130184961710687,1.0025798484216794648,0.18641444885153779509,50,50,-0.0097851343452930450439,0,0
1.6581582611206545076e-05,1.0487374281316406144,0.099312593830844980713,0.18645239526065945923,5.5211829218457406654,0.23999708409912248741,1.0025800194203731142,0.18642788479422309211,51,51,-0.0095133250579237937927,0,0
1.6587887522041010245e-05,1.048593957389854614,0.099330156510496175892,0.18647011670151447671,5.5217156235436295475,0.24001461797169773571,1.0025798635810332371,0.18644286453856234731,52,52,-0.0092415157705545425415,0,0
1.6594911238872089485e-05,1.0484341916485169222,0.099349759893486766504,0.18648985256880099004,5.5223106213010053622,0.24003424803534825771,1.0025800388241918881,0.18645956799076832122,53,53,-0.0089697064831852912903,0,0
1.6602733978220522162e-05,1.048255802630406075,0.099371612342224621695,0.18651182622793632815,5.5229737839342432082,0.24005607132900605438,1.0025798871274880231,0.18647818688097114737,54,54,-0.0086978971958160400391,0,0
1.6611444500314679473e-05,1.0480571379544403321,0.099395997162418717186,0.18653628448664730244,5.5237142666769427635,0.240080482674625173,1.002580068735852592,0.18649894229212363173,55,55,-0.0084260879084467887878,0,0
1.6621140874568130223e-05,1.0478354203708115655,0.09942317843281381351,0.18656349960695683965,5.5245396624417448805,0.24010763437567353429,1.0025799236283960969,0.18652207156139327671,56,56,-0.0081542786210775375366,0,0
1.6631931358409686531e-05,1.0475885095878179065,0.099453500870333014228,0.1865937716041549399,5.5254610244192612356,0.24013798314004025647,1.0025801148395223628,0.18654784598252777128,57,57,-0.0078824693337082862854,0,0
1.6643935251056537838e-05,1.0473130803623047491,0.099487296941569033915,0.1866274304377294746,5.5264880710299388866,0.24017174914847194689,1.0025799801050119253,0.18657655829384334201,58,58,-0.0076106600463390350342,0,0
1.6657283845697675107e-05,1.0470063965560154617,0.099524986767923581676,0.18666483843333134263,5.5276342000259166554,0.24020946505333490295,1.002580185856292827,0.18660854063840451311,59,59,-0.007338850758969783783,0,0
1.6672121335614867148e-05,1.0466644673720515435,0.099566986448102703933,0.18670639252188786505,5.528911744226458147,0.24025143408373286769,1.0025800673211600067,0.18664415258888530924,60,60,-0.0070670414716005325317,0,0
1.668860578733359599e-05,1.0462838336791895344,0.099613808249957372376,0.18675252660320063036,5.5303369877056418602,0.24029828166025876679,1.0025802951272728691,0.1866837994306915216,61,61,-0.0067952321842312812805,0,0
1.6706910024927164825e-05,1.0458597017893953574,0.099665970028292458216,0.18680371358632252843,5.5319254682845535598,0.24035041209320065492,1.0025802017202634087,0.18672792061819881715,62,62,-0.0065234228968620300293,0,0
1.6727222523076151842e-05,1.0453877427100024544,0.099724095945114901718,0.18686046736816921965,5.5336970071064834897,0.24040856342159247494,1.0025804629806327473,0.18677700839557412338,63,63,-0.0062516136094927787781,0,0
1.6749748133769085503e-05,1.0448622031833652013,0.099788826788953621794,0.18692334424778112023,5.5356710518832636936,0.24047326210104275068,1.0025804083055187554,0.18683159648579433787,64,64,-0.0059798043221235275269,0,0
1.6774708720914663406e-05,1.0442777196532486705,0.099860921418202408528,0.18699294397130933332,5.5378717309022995607,0.24054538171984521377,1.0025807202276790786,0.18689227896176166532,65,65,-0.0057079950347542762756,0,0
1.680234349730317487e-05,1.0436274070589512952,0.099941167647295048315,0.18706990982168228421,5.540323227328928013,0.24062559482987327941,1.0025807248593376908,0.18695969881223253872,66,66,-0.0054361857473850250244,0,0
1.6832909103347632384e-05,1.0429046912714292628,0.10003048448098060541,0.18715492785356743766,5.5430548663771510576,0.24071493618008191206,1.0025811132329449649,0.18703456678690305592,67,67,-0.0051643764600157737732,0,0
1.6866679176119862436e-05,1.0421013777721848115,0.10012983297240189706,0.1872487245674269718,5.546096503793528143,0.24081425045562368514,1.0025812079874807381,0.18711764921598833533,68,68,-0.004892567172646522522,0,0
1.6903943397372961138e-05,1.0412095097628937257,0.100240319032490241,0.18735206299352774595,5.5494836481915745807,0.24092476052869624126,1.0025817110631456419,0.18720978621477032955,69,69,-0.0046207578852772712708,0,0
1.6945005703115874541e-05,1.0402194221795078022,0.10036310317356453292,0.1874657363169260349,5.5532528325799930258,0.24104750921942996733,1.002581941471222482,0.18731187767368706609,70,70,-0.0043489485979080200195,0,0
1.6990181572869934222e-05,1.0391216388160682271,0.10049950308165450652,0.18759055884690420402,5.55744675765990781,0.24118393264668358533,1.0025826151042753764,0.18742489960750360889,71,71,-0.0040771393105387687683,0,0
1.7039793992554501769e-05,1.0379049238133499777,0.10065090020195438525,0.1877273532599852135,5.5621095860454703441,0.24133529296679789855,1.0025830470968197794,0.18754988642273956456,72,72,-0.0038053300231695175171,0,0
1.7094167919168861043e-05,1.0365582425362784846,0.10081884000677571178,0.18787693372902480871,5.5672920549927864542,0.24150325587530560578,1.0025839708883284018,0.18768794310634862033,73,73,-0.0035335207358002662659,0,0
1.7153622735823594237e-05,1.0350688365091205156,0.10100493142507466215,0.18804008365758967392,5.5730465704794234227,0.24168930907561067545,1.0025846969341072334,0.18784022038630224238,74,74,-0.0032617114484310150146,0,0
1.7218462431767479786e-05,1.0334242953798367104,0.10121094000555208581,0.18821752747655939864,5.5794321509672588633,0.24189534052710415235,1.002585979767990354,0.18800791837175867549,75,75,-0.0029899021610617637634,0,0
1.7288962906784446417e-05,1.0316107116858583836,0.1014386719138430093,0.18840989510882322211,5.5865090561684862536,0.24212303280645755543,1.0025871224420099814,0.18819224825803465562,76,76,-0.0027180928736925125122,0,0
1.736535610014115232e-05,1.0296149607983000607,0.10169004878467774455,0.18861767861824860204,5.594343209897160385,0.24237443263420641038,1.0025889020206788516,0.18839441864778494473,77,77,-0.002446283586323261261,0,0
1.7447810384376371916e-05,1.0274230661448473523,0.10196695760335697245,0.18884117993767199351,5.6029997418480528282,0.24265130050067909573,1.0025906056018072388,0.18861557075967816388,78,78,-0.0021744742989540100098,0,0
1.7536407152960749702e-05,1.0250229108340256357,0.10227127901189023151,0.18908044999037673661,5.6125459526400662824,0.24295564538716518665,1.0025930257135191592,0.1888567278039538222,79,79,-0.0019026650115847587585,0,0
1.7631113581454515004e-05,1.0224031571607987701,0.1026046547516592522,0.18933521971139705142,5.6230421154785670268,0.24328897892066900233,1.0025954075347562888,0.18911867229961359937,80,80,-0.0016308557242155075073,0,0
1.7731752638231879223e-05,1.0195569641374988556,0.10296839308396432688,0.18960482643037865347,5.6345403653339154459,0.24365274157955688072,1.0025985241261847758,0.18940180954433094573,81,81,-0.0013590464368462562561,0,0
1.7837972408306791949e-05,1.0164822084523159607,0.10336304708005263076,0.18988814158173633606,5.6470690121374991222,0.24404735171614039269,1.0026015069797102885,0.18970592338853137226,82,82,-0.0010872371494770050049,0,0
1.7949219083527670086e-05,1.0131868175458609294,0.10378810702161218871,0.19018351147293019454,5.6606240550804054479,0.24447243631396614605,1.0026050219395072904,0.19002990952302611927,83,83,-0.00081542786210775375366,0,0
1.8064719659819585983e-05,1.0096899043428761988,0.10424141760574621995,0.19048872666002572562,5.6751474900432272719,0.24492569958990464962,1.0026079836286316826,0.19037145939104180292,84,84,-0.00054361857473850250244,0,0
1.8183481830879657268e-05,1.0060265402072594565,0.10471892290663017966,0.19080103837716330673,5.6905198676935793145,0.24540322773960651648,1.0026109123241846444,0.19072688060812983957,85,85,-0.00027180928736925125122,0,0
1.8304317064766060288e-05,1.0022458059536767383,0.10521443275393159433,0.19111723545882894348,5.7065493153269750692,0.24589868376558293717,1.0026125739501214884,0.19109108509848515833,86,86,0,0,0
1.8425889461770703255e-05,0.9984106188944384952,0.1057200155523756735,0.19143378556991003103,5.7229851301829599564,0.24640428531312277838,1.002613575396302581,0.19145789690454564913,87,87,0.00027180928736925125122,0,0
1.8546786970188002339e-05,0.99458996642098629337,0.10622652100598294067,0.19174702878754498747,5.7395316608468780473,0.24691072899531413265,1.0026128578818345183,0.19182057368976881961,88,88,0.00054361857473850250244,0,0
1.8665606268107170774e-05,0.9908542938009131662,0.10672462873360728797,0.19205339878063701353,5.7558841967964333719,0.24740885206822951781,1.0026114321451322642,0.19217252130799661325,89,89,0.00081542786210775375366,0,0
1.8781038458319409992e-05,0.98726573694087427224,0.10720568713069403288,0.19234963771281682332,5.7717541381396415545,0.24788984310874409567,1.0026085693629518403,0.19250795695251327055,90,90,0.0010872371494770050049,0,0
