"epsilon","mach_number","pressure","rad_temp","rho","rhoE","rhou","temperature","GlobalNodeId","PedigreeNodeId","Points:0","Points:1","Points:2"
3.007458346e-06,2.999935851,0.01797501739,0.121677808,1.000000062,0.1617754071,0.5192550254,0.12156013,1,1,-0.01310054492,0,0
3.007458782e-06,2.999933376,0.01797504079,0.1216778124,1.000000027,0.1617753953,0.5192549259,0.1215602925,2,2,-0.01309235673,0,0
3.007459997e-06,2.999931623,0.01797506489,0.1216778247,1.000000238,0.1617754546,0.5192550254,0.1215604298,3,3,-0.01308416948,0,0
3.007461989e-06,2.999929152,0.01797508824,0.1216778448,1.000000203,0.1617754428,0.5192549259,0.121560592,4,4,-0.01307598129,0,0
3.007464756e-06,2.999927404,0.01797511228,0.1216778728,1.000000414,0.161775502,0.5192550254,0.1215607289,5,5,-0.01306779403,0,0
3.0074683e-06,2.999924938,0.01797513558,0.1216779087,1.000000378,0.1617754901,0.5192549259,0.1215608908,6,6,-0.01305960584,0,0
3.007472617e-06,2.999923194,0.01797515958,0.1216779524,1.000000589,0.1617755493,0.5192550254,0.1215610275,7,7,-0.01305141766,0,0
3.007477709e-06,2.999920732,0.01797518284,0.1216780039,1.000000553,0.1617755374,0.5192549259,0.1215611891,8,8,-0.0130432304,0,0
3.007483574e-06,2.999918992,0.01797520679,0.1216780632,1.000000764,0.1617755965,0.5192550254,0.1215613255,9,9,-0.01303504221,0,0
3.007490212e-06,2.999916532,0.01797523002,0.1216781303,1.000000728,0.1617755845,0.5192549259,0.1215614869,10,10,-0.01302685402,0,0
3.007497622e-06,2.999914795,0.01797525394,0.1216782053,1.000000939,0.1617756437,0.5192550254,0.1215616231,11,11,-0.01301866677,0,0
3.007505804e-06,2.999912338,0.01797527714,0.121678288,1.000000903,0.1617756317,0.5192549259,0.1215617843,12,12,-0.01301047858,0,0
3.007514757e-06,2.999910603,0.01797530103,0.1216783786,1.000001114,0.1617756908,0.5192550254,0.1215619203,13,13,-0.01300229039,0,0
3.007524481e-06,2.999908148,0.01797532421,0.1216784769,1.000001078,0.1617756787,0.5192549259,0.1215620814,14,14,-0.01299410313,0,0
3.007534976e-06,2.999906415,0.01797534808,0.1216785831,1.000001288,0.1617757378,0.5192550254,0.1215622173,15,15,-0.01298591495,0,0
3.007546241e-06,2.999903962,0.01797537124,0.121678697,1.000001252,0.1617757257,0.5192549259,0.1215623783,16,16,-0.01297772769,0,0
3.007558276e-06,2.99990223,0.0179753951,0.1216788187,1.000001463,0.1617757848,0.5192550254,0.121562514,17,17,-0.0129695395,0,0
3.007571082e-06,2.999899777,0.01797541825,0.1216789483,1.000001427,0.1617757728,0.5192549259,0.121562675,18,18,-0.01296135131,0,0
3.007584657e-06,2.999898046,0.0179754421,0.1216790856,1.000001637,0.1617758318,0.5192550254,0.1215628107,19,19,-0.01295316406,0,0
3.007599002e-06,2.999895593,0.01797546525,0.1216792307,1.000001601,0.1617758197,0.5192549259,0.1215629716,20,20,-0.01294497587,0,0
3.007614117e-06,2.999893863,0.01797548909,0.1216793835,1.000001811,0.1617758788,0.5192550254,0.1215631073,21,21,-0.01293678768,0,0
3.007630003e-06,2.99989141,0.01797551225,0.1216795442,1.000001775,0.1617758667,0.5192549259,0.1215632683,22,22,-0.01292860042,0,0
3.007646658e-06,2.999889679,0.01797553609,0.1216797127,1.000001986,0.1617759258,0.5192550254,0.1215634039,23,23,-0.01292041223,0,0
3.007664083e-06,2.999887225,0.01797555926,0.1216798889,1.00000195,0.1617759137,0.5192549259,0.121563565,24,24,-0.01291222498,0,0
3.007682279e-06,2.999885493,0.01797558311,0.1216800729,1.00000216,0.1617759728,0.5192550254,0.1215637007,25,25,-0.01290403679,0,0
3.007701246e-06,2.999883037,0.01797560629,0.1216802648,1.000002124,0.1617759608,0.5192549259,0.1215638619,26,26,-0.0128958486,0,0
3.007720983e-06,2.999881304,0.01797563017,0.1216804644,1.000002335,0.1617760199,0.5192550254,0.1215639977,27,27,-0.01288766135,0,0
3.007741492e-06,2.999878847,0.01797565337,0.1216806718,1.000002299,0.1617760078,0.5192549259,0.121564159,28,28,-0.01287947316,0,0
3.007762772e-06,2.999877111,0.01797567726,0.1216808871,1.000002509,0.161776067,0.5192550254,0.121564295,29,29,-0.01287128497,0,0
3.007784825e-06,2.999874651,0.0179757005,0.1216811101,1.000002474,0.161776055,0.5192549259,0.1215644565,30,30,-0.01286309771,0,0
3.007807651e-06,2.999872913,0.01797572442,0.121681341,1.000002684,0.1617761141,0.5192550254,0.1215645926,31,31,-0.01285490952,0,0
3.00783125e-06,2.99987045,0.01797574769,0.1216815796,1.000002649,0.1617761021,0.5192549259,0.1215647543,32,32,-0.01284672227,0,0
3.007855622e-06,2.999868709,0.01797577165,0.1216818261,1.00000286,0.1617761613,0.5192550254,0.1215648907,33,33,-0.01283853408,0,0
3.00788077e-06,2.999866242,0.01797579496,0.1216820805,1.000002824,0.1617761494,0.5192549259,0.1215650526,34,34,-0.01283034589,0,0
3.007906692e-06,2.999864497,0.01797581895,0.1216823426,1.000003035,0.1617762086,0.5192550254,0.1215651893,35,35,-0.01282215863,0,0
3.007933391e-06,2.999862026,0.01797584231,0.1216826126,1.000003,0.1617761968,0.5192549259,0.1215653515,36,36,-0.01281397045,0,0
3.007960867e-06,2.999860277,0.01797586636,0.1216828905,1.000003211,0.161776256,0.5192550254,0.1215654885,37,37,-0.01280578226,0,0
3.00798912e-06,2.999857801,0.01797588977,0.1216831763,1.000003176,0.1617762442,0.5192549259,0.1215656511,38,38,-0.012797595,0,0
3.008018152e-06,2.999856047,0.01797591387,0.1216834699,1.000003387,0.1617763035,0.5192550254,0.1215657884,39,39,-0.01278940681,0,0
3.008047964e-06,2.999853565,0.01797593734,0.1216837714,1.000003352,0.1617762918,0.5192549259,0.1215659513,40,40,-0.01278121956,0,0
3.008078556e-06,2.999851807,0.0179759615,0.1216840807,1.000003564,0.1617763511,0.5192550254,0.121566089,41,41,-0.01277303137,0,0
3.00810993e-06,2.999849319,0.01797598504,0.121684398,1.000003529,0.1617763394,0.5192549259,0.1215662524,42,42,-0.01276484318,0,0
3.008142087e-06,2.999847554,0.01797600926,0.1216847232,1.000003741,0.1617763989,0.5192550254,0.1215663905,43,43,-0.01275665592,0,0
3.008175029e-06,2.99984506,0.01797603287,0.1216850564,1.000003707,0.1617763873,0.5192549259,0.1215665543,44,44,-0.01274846774,0,0
3.008208755e-06,2.999843289,0.01797605717,0.1216853974,1.000003919,0.1617764468,0.5192550254,0.1215666928,45,45,-0.01274027955,0,0
3.008243268e-06,2.999840788,0.01797608086,0.1216857465,1.000003885,0.1617764352,0.5192549259,0.1215668572,46,46,-0.01273209229,0,0
3.008278569e-06,2.999839009,0.01797610524,0.1216861034,1.000004097,0.1617764948,0.5192550254,0.1215669962,47,47,-0.0127239041,0,0
3.008314659e-06,2.999836501,0.01797612901,0.1216864684,1.000004064,0.1617764834,0.5192549259,0.1215671611,48,48,-0.01271571685,0,0
3.00835154e-06,2.999834715,0.01797615347,0.1216868414,1.000004276,0.1617765431,0.5192550254,0.1215673006,49,49,-0.01270752866,0,0
3.008389213e-06,2.999832198,0.01797617734,0.1216872223,1.000004243,0.1617765317,0.5192549259,0.1215674661,50,50,-0.01269934047,0,0
3.00842768e-06,2.999830404,0.01797620189,0.1216876113,1.000004456,0.1617765915,0.5192550254,0.1215676062,51,51,-0.01269115321,0,0
3.008466942e-06,2.999827878,0.01797622585,0.1216880083,1.000004423,0.1617765802,0.5192549259,0.1215677723,52,52,-0.01268296503,0,0
3.008507001e-06,2.999826076,0.0179762505,0.1216884134,1.000004636,0.1617766401,0.5192550254,0.121567913,53,53,-0.01267477684,0,0
3.008547859e-06,2.999823541,0.01797627457,0.1216888266,1.000004604,0.1617766289,0.5192549259,0.1215680798,54,54,-0.01266658958,0,0
3.008589517e-06,2.999821729,0.01797629932,0.1216892478,1.000004818,0.1617766889,0.5192550254,0.1215682212,55,55,-0.01265840139,0,0
3.008631977e-06,2.999819184,0.0179763235,0.1216896772,1.000004785,0.1617766778,0.5192549259,0.1215683886,56,56,-0.01265021414,0,0
3.008675242e-06,2.999817362,0.01797634836,0.1216901146,1.000005,0.1617767379,0.5192550254,0.1215685307,57,57,-0.01264202595,0,0
3.008719312e-06,2.999814807,0.01797637265,0.1216905603,1.000004968,0.161776727,0.5192549259,0.1215686988,58,58,-0.01263383776,0,0
3.008764191e-06,2.999812975,0.01797639763,0.121691014,1.000005182,0.1617767872,0.5192550254,0.1215688417,59,59,-0.0126256505,0,0
3.008809879e-06,2.999810409,0.01797642205,0.121691476,1.000005151,0.1617767763,0.5192549259,0.1215690106,60,60,-0.01261746231,0,0
3.008856379e-06,2.999808566,0.01797644715,0.1216919462,1.000005366,0.1617768367,0.5192550254,0.1215691542,61,61,-0.01260927413,0,0
3.008903693e-06,2.999805989,0.01797647169,0.1216924246,1.000005335,0.161776826,0.5192549259,0.1215693239,62,62,-0.01260108687,0,0
3.008951823e-06,2.999804134,0.01797649692,0.1216929112,1.000005551,0.1617768864,0.5192550254,0.1215694683,63,63,-0.01259289868,0,0
3.009000772e-06,2.999801544,0.0179765216,0.1216934061,1.000005521,0.1617768759,0.5192549259,0.1215696389,64,64,-0.01258471143,0,0
3.009050541e-06,2.999799678,0.01797654697,0.1216939093,1.000005737,0.1617769364,0.5192550254,0.1215697842,65,65,-0.01257652324,0,0
3.009101133e-06,2.999797076,0.01797657179,0.1216944209,1.000005707,0.161776926,0.5192549259,0.1215699557,66,66,-0.01256833505,0,0
3.009152551e-06,2.999795196,0.01797659729,0.1216949407,1.000005923,0.1617769868,0.5192550254,0.1215701019,67,67,-0.01256014779,0,0
3.009204796e-06,2.999792581,0.01797662227,0.1216954689,1.000005894,0.1617769765,0.5192549259,0.1215702743,68,68,-0.0125519596,0,0
3.009257872e-06,2.999790689,0.01797664792,0.1216960055,1.000006111,0.1617770374,0.5192550254,0.1215704214,69,69,-0.01254377142,0,0
3.00931178e-06,2.999788059,0.01797667304,0.1216965506,1.000006083,0.1617770273,0.5192549259,0.1215705948,70,70,-0.01253558416,0,0
3.009366524e-06,2.999786153,0.01797669885,0.121697104,1.0000063,0.1617770883,0.5192550254,0.1215707428,71,71,-0.01252739597,0,0
3.009422106e-06,2.99978351,0.01797672414,0.1216976659,1.000006272,0.1617770783,0.5192549259,0.1215709172,72,72,-0.01251920871,0,0
3.009478528e-06,2.999781589,0.01797675011,0.1216982363,1.000006491,0.1617771395,0.5192550254,0.1215710663,73,73,-0.01251102053,0,0
3.009535793e-06,2.999778931,0.01797677556,0.1216988153,1.000006463,0.1617771297,0.5192549259,0.1215712418,74,74,-0.01250283234,0,0
3.009593905e-06,2.999776995,0.0179768017,0.1216994027,1.000006682,0.1617771911,0.5192550254,0.1215713919,75,75,-0.01249464508,0,0
3.009652866e-06,2.999774321,0.01797682732,0.1216999988,1.000006655,0.1617771815,0.5192549259,0.1215715685,76,76,-0.01248645689,0,0
3.009712678e-06,2.99977237,0.01797685363,0.1217006034,1.000006875,0.161777243,0.5192550254,0.1215717197,77,77,-0.01247826871,0,0
3.009773345e-06,2.99976968,0.01797687944,0.1217012167,1.000006849,0.1617772336,0.5192549259,0.1215718974,78,78,-0.01247008145,0,0
3.009834871e-06,2.999767713,0.01797690593,0.1217018386,1.000007069,0.1617772953,0.5192550254,0.1215720498,79,79,-0.01246189326,0,0
3.009897257e-06,2.999765006,0.01797693192,0.1217024693,1.000007044,0.161777286,0.5192549259,0.1215722287,80,80,-0.01245370507,0,0
3.009960507e-06,2.999763023,0.0179769586,0.1217031086,1.000007264,0.1617773479,0.5192550254,0.1215723822,81,81,-0.01244551782,0,0
3.010024624e-06,2.999760299,0.01797698479,0.1217037568,1.00000724,0.1617773389,0.5192549259,0.1215725623,82,82,-0.01243732963,0,0
3.010089611e-06,2.999758298,0.01797701166,0.1217044137,1.000007461,0.161777401,0.5192550254,0.1215727171,83,83,-0.01242914237,0,0
3.010155472e-06,2.999755556,0.01797703805,0.1217050794,1.000007437,0.1617773921,0.5192549259,0.1215728985,84,84,-0.01242095418,0,0
3.01022221e-06,2.999753538,0.01797706512,0.1217057539,1.00000766,0.1617774544,0.5192550254,0.1215730545,85,85,-0.01241276599,0,0
3.010289828e-06,2.999750777,0.01797709171,0.1217064374,1.000007637,0.1617774458,0.5192549259,0.1215732372,86,86,-0.01240457874,0,0
3.01035833e-06,2.99974874,0.01797711899,0.1217071298,1.00000786,0.1617775083,0.5192550254,0.1215733945,87,87,-0.01239639055,0,0
3.01042772e-06,2.999745961,0.0179771458,0.1217078311,1.000007837,0.1617774998,0.5192549259,0.1215735785,88,88,-0.01238820236,0,0
3.010498e-06,2.999743905,0.01797717329,0.1217085415,1.000008061,0.1617775625,0.5192550254,0.1215737372,89,89,-0.01238001511,0,0
3.010569174e-06,2.999741106,0.01797720032,0.1217092608,1.00000804,0.1617775543,0.5192549259,0.1215739226,90,90,-0.01237182692,0,0
3.010641247e-06,2.99973903,0.01797722803,0.1217099892,1.000008265,0.1617776172,0.5192550254,0.1215740827,91,91,-0.01236363966,0,0
3.010714221e-06,2.999736211,0.01797725528,0.1217107267,1.000008244,0.1617776093,0.5192549259,0.1215742695,92,92,-0.01235545147,0,0
3.010788101e-06,2.999734115,0.01797728322,0.1217114734,1.000008469,0.1617776724,0.5192550254,0.121574431,93,93,-0.01234726328,0,0
3.01086289e-06,2.999731275,0.01797731071,0.1217122292,1.00000845,0.1617776647,0.5192549259,0.1215746193,94,94,-0.01233907603,0,0
3.010938592e-06,2.999729158,0.01797733888,0.1217129943,1.000008676,0.161777728,0.5192550254,0.1215747823,95,95,-0.01233088784,0,0
3.011015211e-06,2.999726296,0.01797736661,0.1217137686,1.000008657,0.1617777205,0.5192549259,0.1215749721,96,96,-0.01232269965,0,0
3.011092752e-06,2.999724158,0.01797739502,0.1217145522,1.000008884,0.1617777842,0.5192550254,0.1215751366,97,97,-0.01231451239,0,0
3.011171218e-06,2.999721274,0.017977423,0.1217153451,1.000008866,0.1617777769,0.5192549259,0.121575328,98,98,-0.01230632421,0,0
3.011250613e-06,2.999719114,0.01797745166,0.1217161474,1.000009095,0.1617778408,0.5192550254,0.1215754941,99,99,-0.01229813695,0,0
3.011330941e-06,2.999716208,0.01797747989,0.1217169591,1.000009078,0.1617778338,0.5192549259,0.1215756871,100,100,-0.01228994876,0,0
3.011412207e-06,2.999714025,0.0179775088,0.1217177803,1.000009307,0.1617778979,0.5192550254,0.1215758548,101,101,-0.01228176057,0,0
3.011494415e-06,2.999711095,0.0179775373,0.121718611,1.000009291,0.1617778911,0.5192549259,0.1215760494,102,102,-0.01227357332,0,0
3.011577569e-06,2.999708889,0.01797756647,0.1217194512,1.000009521,0.1617779555,0.5192550254,0.1215762187,103,103,-0.01226538513,0,0
3.011661674e-06,2.999705935,0.01797759524,0.121720301,1.000009506,0.161777949,0.5192549259,0.1215764151,104,104,-0.01225719694,0,0
3.011746734e-06,2.999703705,0.01797762468,0.1217211605,1.000009737,0.1617780137,0.5192550254,0.1215765861,105,105,-0.01224900968,0,0
3.011832754e-06,2.999700727,0.01797765372,0.1217220296,1.000009723,0.1617780075,0.5192549259,0.1215767842,106,106,-0.0122408215,0,0
3.011919738e-06,2.999698472,0.01797768344,0.1217229084,1.000009955,0.1617780724,0.5192550254,0.1215769569,107,107,-0.01223263424,0,0
3.012007691e-06,2.999695469,0.01797771276,0.121723797,1.000009942,0.1617780665,0.5192549259,0.1215771568,108,108,-0.01222444605,0,0
3.012096617e-06,2.999693189,0.01797774276,0.1217246955,1.000010175,0.1617781317,0.5192550254,0.1215773313,109,109,-0.01221625786,0,0
3.012186521e-06,2.99969016,0.01797777238,0.1217256038,1.000010164,0.1617781261,0.5192549259,0.1215775331,110,110,-0.01220807061,0,0
3.012277409e-06,2.999687854,0.01797780267,0.121726522,1.000010398,0.1617781916,0.5192550254,0.1215777094,111,111,-0.01219988242,0,0
3.012369284e-06,2.999684798,0.01797783258,0.1217274501,1.000010387,0.1617781863,0.5192549259,0.121577913,112,112,-0.01219169423,0,0
3.012462153e-06,2.999682466,0.01797786317,0.1217283883,1.000010622,0.1617782521,0.5192550254,0.1215780913,113,113,-0.01218350697,0,0
3.012556019e-06,2.999679383,0.01797789338,0.1217293365,1.000010613,0.161778247,0.5192549259,0.1215782968,114,114,-0.01217531879,0,0
3.012650888e-06,2.999677023,0.01797792428,0.1217302949,1.000010849,0.1617783132,0.5192550254,0.1215784769,115,115,-0.01216713153,0,0
3.012746765e-06,2.999673912,0.0179779548,0.1217312634,1.000010841,0.1617783084,0.5192549259,0.1215786844,116,116,-0.01215894334,0,0
3.012843655e-06,2.999671525,0.01797798601,0.1217322421,1.000011079,0.1617783749,0.5192550254,0.1215788666,117,117,-0.01215075515,0,0
3.012941563e-06,2.999668386,0.01797801686,0.1217332311,1.000011071,0.1617783705,0.5192549259,0.1215790761,118,118,-0.0121425679,0,0
3.013040495e-06,2.99966597,0.01797804839,0.1217342303,1.00001131,0.1617784372,0.5192550254,0.1215792602,119,119,-0.01213437971,0,0
3.013140456e-06,2.999662802,0.01797807956,0.12173524,1.000011304,0.1617784331,0.5192549259,0.1215794718,120,120,-0.01212619152,0,0
3.013241452e-06,2.999660357,0.01797811141,0.1217362601,1.000011544,0.1617785002,0.5192550254,0.121579658,121,121,-0.01211800426,0,0
3.013343487e-06,2.999657158,0.01797814292,0.1217372906,1.000011539,0.1617784965,0.5192549259,0.1215798717,122,122,-0.01210981607,0,0
3.013446568e-06,2.999654684,0.01797817511,0.1217383317,1.000011781,0.1617785639,0.5192550254,0.12158006,123,123,-0.01210162882,0,0
3.0135507e-06,2.999651455,0.01797820696,0.1217393834,1.000011777,0.1617785605,0.5192549259,0.1215802759,124,124,-0.01209344063,0,0
3.013655889e-06,2.999648949,0.0179782395,0.1217404457,1.00001202,0.1617786282,0.5192550254,0.1215804664,125,125,-0.01208525244,0,0
3.01376214e-06,2.999645689,0.0179782717,0.1217415188,1.000012017,0.1617786252,0.5192549259,0.1215806844,126,126,-0.01207706518,0,0
3.01386946e-06,2.999643153,0.01797830458,0.1217426025,1.000012261,0.1617786933,0.5192550254,0.1215808771,127,127,-0.012068877,0,0
3.013977853e-06,2.999639861,0.01797833714,0.1217436971,1.00001226,0.1617786906,0.5192549259,0.1215810974,128,128,-0.01206068881,0,0
3.014087327e-06,2.999637292,0.01797837038,0.1217448026,1.000012506,0.161778759,0.5192550254,0.1215812924,129,129,-0.01205250155,0,0
3.014197886e-06,2.999633968,0.01797840331,0.121745919,1.000012506,0.1617787567,0.5192549259,0.121581515,130,130,-0.01204431336,0,0
3.014309538e-06,2.999631367,0.01797843692,0.1217470464,1.000012753,0.1617788255,0.5192550254,0.1215817123,131,131,-0.01203612611,0,0
3.014422288e-06,2.999628009,0.01797847022,0.1217481849,1.000012755,0.1617788236,0.5192549259,0.1215819373,132,132,-0.01202793792,0,0
3.014536142e-06,2.999625374,0.0179785042,0.1217493345,1.000013003,0.1617788928,0.5192550254,0.121582137,133,133,-0.01201974973,0,0
3.014651107e-06,2.999621983,0.01797853788,0.1217504953,1.000013006,0.1617788912,0.5192549259,0.1215823643,134,134,-0.01201156247,0,0
3.014767189e-06,2.999619314,0.01797857225,0.1217516673,1.000013255,0.1617789608,0.5192550254,0.1215825664,135,135,-0.01200337429,0,0
3.014884394e-06,2.999615887,0.01797860632,0.1217528506,1.00001326,0.1617789596,0.5192549259,0.1215827963,136,136,-0.0119951861,0,0
3.015002729e-06,2.999613184,0.01797864107,0.1217540453,1.000013511,0.1617790296,0.5192550254,0.1215830008,137,137,-0.01198699884,0,0
3.0151222e-06,2.999609722,0.01797867554,0.1217552514,1.000013517,0.1617790288,0.5192549259,0.1215832332,138,138,-0.01197881065,0,0
3.015242814e-06,2.999606983,0.0179787107,0.121756469,1.000013769,0.1617790992,0.5192550254,0.1215834402,139,139,-0.0119706234,0,0
3.015364578e-06,2.999603485,0.01797874558,0.1217576982,1.000013777,0.1617790988,0.5192549259,0.1215836751,140,140,-0.01196243521,0,0
3.015487498e-06,2.999600709,0.01797878114,0.1217589391,1.000014031,0.1617791696,0.5192550254,0.1215838848,141,141,-0.01195424702,0,0
3.015611581e-06,2.999597174,0.01797881643,0.1217601916,1.00001404,0.1617791696,0.5192549259,0.1215841223,142,142,-0.01194605976,0,0
3.015736834e-06,2.999594362,0.01797885241,0.1217614559,1.000014296,0.1617792408,0.5192550254,0.1215843346,143,143,-0.01193787158,0,0
3.015863264e-06,2.999590789,0.01797888812,0.121762732,1.000014306,0.1617792412,0.5192549259,0.1215845748,144,144,-0.01192968339,0,0
3.015990877e-06,2.999587939,0.01797892453,0.1217640201,1.000014563,0.1617793129,0.5192550254,0.1215847897,145,145,-0.01192149613,0,0
3.016119682e-06,2.999584327,0.01797896067,0.1217653201,1.000014576,0.1617793137,0.5192549259,0.1215850327,146,146,-0.01191330794,0,0
3.016249685e-06,2.999581438,0.01797899751,0.1217666322,1.000014834,0.1617793858,0.5192550254,0.1215852503,147,147,-0.01190511975,0,0
3.016380893e-06,2.999577788,0.0179790341,0.1217679564,1.000014848,0.1617793871,0.5192549259,0.1215854961,148,148,-0.0118969325,0,0
3.016513314e-06,2.99957486,0.01797907138,0.1217692928,1.000015109,0.1617794596,0.5192550254,0.1215857165,149,149,-0.01188874431,0,0
3.016646955e-06,2.999571169,0.01797910841,0.1217706415,1.000015124,0.1617794614,0.5192549259,0.1215859651,150,150,-0.01188055705,0,0
3.016781823e-06,2.999568201,0.01797914614,0.1217720025,1.000015386,0.1617795343,0.5192550254,0.1215861884,151,151,-0.01187236886,0,0
