"epsilon","mach_number","pressure","rad_temp","rho","rhoE","rhou","temperature","GlobalNodeId","PedigreeNodeId","Points:0","Points:1","Points:2"
3.007478804e-06,2.999935597,0.01797501703,0.1216780149,0.9999999771,0.1617753811,0.5192549544,0.1215601379,1,1,-0.01310054492,0,0
3.007478925e-06,2.999934684,0.01797502929,0.1216780162,1.000000067,0.1617754095,0.5192549969,0.1215602098,2,2,-0.01309645083,0,0
3.007479242e-06,2.999933478,0.01797504084,0.1216780194,1.000000065,0.1617754049,0.5192549544,0.1215602881,3,3,-0.01309235673,0,0
3.007479753e-06,2.999932567,0.01797505308,0.1216780245,1.000000155,0.1617754332,0.5192549969,0.12156036,4,4,-0.01308826357,0,0
3.007480458e-06,2.999931361,0.01797506462,0.1216780317,1.000000154,0.1617754287,0.5192549544,0.1215604382,5,5,-0.01308416948,0,0
3.007481359e-06,2.999930452,0.01797507684,0.1216780408,1.000000243,0.161775457,0.5192549969,0.12156051,6,6,-0.01308007538,0,0
3.007482453e-06,2.999929247,0.01797508837,0.1216780518,1.000000242,0.1617754525,0.5192549544,0.1215605881,7,7,-0.01307598129,0,0
3.007483743e-06,2.999928339,0.01797510058,0.1216780649,1.000000332,0.1617754807,0.5192549969,0.1215606598,8,8,-0.0130718872,0,0
3.007485226e-06,2.999927135,0.01797511209,0.1216780799,1.00000033,0.1617754762,0.5192549544,0.1215607379,9,9,-0.01306779403,0,0
3.007486904e-06,2.999926228,0.0179751243,0.1216780969,1.000000419,0.1617755045,0.5192549969,0.1215608095,10,10,-0.01306369994,0,0
3.007488775e-06,2.999925026,0.01797513579,0.1216781158,1.000000418,0.1617754999,0.5192549544,0.1215608875,11,11,-0.01305960584,0,0
3.007490841e-06,2.999924119,0.01797514799,0.1216781367,1.000000507,0.1617755282,0.5192549969,0.121560959,12,12,-0.01305551175,0,0
3.007493101e-06,2.999922918,0.01797515947,0.1216781595,1.000000505,0.1617755236,0.5192549544,0.1215610369,13,13,-0.01305141766,0,0
3.007495554e-06,2.999922012,0.01797517166,0.1216781844,1.000000595,0.1617755518,0.5192549969,0.1215611084,14,14,-0.01304732356,0,0
3.007498201e-06,2.999920812,0.01797518313,0.1216782111,1.000000593,0.1617755472,0.5192549544,0.1215611863,15,15,-0.0130432304,0,0
3.007501042e-06,2.999919907,0.01797519531,0.1216782399,1.000000683,0.1617755755,0.5192549969,0.1215612577,16,16,-0.01303913631,0,0
3.007504077e-06,2.999918708,0.01797520677,0.1216782706,1.000000681,0.1617755709,0.5192549544,0.1215613355,17,17,-0.01303504221,0,0
3.007507305e-06,2.999917804,0.01797521894,0.1216783032,1.00000077,0.1617755991,0.5192549969,0.1215614068,18,18,-0.01303094812,0,0
3.007510726e-06,2.999916605,0.0179752304,0.1216783378,1.000000768,0.1617755945,0.5192549544,0.1215614846,19,19,-0.01302685402,0,0
3.007514341e-06,2.999915702,0.01797524255,0.1216783744,1.000000858,0.1617756227,0.5192549969,0.1215615559,20,20,-0.01302276086,0,0
3.007518149e-06,2.999914504,0.017975254,0.1216784129,1.000000856,0.1617756181,0.5192549544,0.1215616336,21,21,-0.01301866677,0,0
3.007522151e-06,2.999913601,0.01797526615,0.1216784534,1.000000946,0.1617756463,0.5192549969,0.1215617049,22,22,-0.01301457267,0,0
3.007526345e-06,2.999912403,0.0179752776,0.1216784958,1.000000944,0.1617756417,0.5192549544,0.1215617825,23,23,-0.01301047858,0,0
3.007530733e-06,2.999911502,0.01797528974,0.1216785402,1.000001033,0.1617756699,0.5192549969,0.1215618537,24,24,-0.01300638448,0,0
3.007535314e-06,2.999910304,0.01797530118,0.1216785865,1.000001031,0.1617756653,0.5192549544,0.1215619314,25,25,-0.01300229039,0,0
3.007540088e-06,2.999909403,0.01797531331,0.1216786348,1.000001121,0.1617756935,0.5192549969,0.1215620025,26,26,-0.01299819723,0,0
3.007545055e-06,2.999908206,0.01797532475,0.121678685,1.000001118,0.1617756888,0.5192549544,0.1215620801,27,27,-0.01299410313,0,0
3.007550216e-06,2.999907305,0.01797533688,0.1216787372,1.000001208,0.161775717,0.5192549969,0.1215621513,28,28,-0.01299000904,0,0
3.007555569e-06,2.999906109,0.01797534831,0.1216787914,1.000001206,0.1617757124,0.5192549544,0.1215622288,29,29,-0.01298591495,0,0
3.007561115e-06,2.999905208,0.01797536044,0.1216788475,1.000001295,0.1617757406,0.5192549969,0.1215623,30,30,-0.01298182085,0,0
3.007566854e-06,2.999904012,0.01797537186,0.1216789055,1.000001293,0.1617757359,0.5192549544,0.1215623775,31,31,-0.01297772769,0,0
3.007572785e-06,2.999903112,0.01797538399,0.1216789655,1.000001383,0.1617757641,0.5192549969,0.1215624486,32,32,-0.01297363359,0,0
3.00757891e-06,2.999901916,0.01797539541,0.1216790275,1.000001381,0.1617757595,0.5192549544,0.1215625261,33,33,-0.0129695395,0,0
3.007585228e-06,2.999901016,0.01797540753,0.1216790913,1.00000147,0.1617757877,0.5192549969,0.1215625972,34,34,-0.01296544541,0,0
3.007591738e-06,2.99989982,0.01797541896,0.1216791572,1.000001468,0.161775783,0.5192549544,0.1215626747,35,35,-0.01296135131,0,0
3.007598441e-06,2.999898921,0.01797543107,0.121679225,1.000001557,0.1617758112,0.5192549969,0.1215627458,36,36,-0.01295725815,0,0
3.007605337e-06,2.999897725,0.0179754425,0.1216792947,1.000001555,0.1617758066,0.5192549544,0.1215628233,37,37,-0.01295316406,0,0
3.007612426e-06,2.999896825,0.01797545461,0.1216793664,1.000001645,0.1617758348,0.5192549969,0.1215628944,38,38,-0.01294906996,0,0
3.007619708e-06,2.99989563,0.01797546603,0.1216794401,1.000001643,0.1617758301,0.5192549544,0.1215629719,39,39,-0.01294497587,0,0
3.007627182e-06,2.99989473,0.01797547815,0.1216795157,1.000001732,0.1617758583,0.5192549969,0.1215630429,40,40,-0.01294088177,0,0
3.00763485e-06,2.999893534,0.01797548957,0.1216795932,1.00000173,0.1617758536,0.5192549544,0.1215631205,41,41,-0.01293678768,0,0
3.00764271e-06,2.999892634,0.01797550169,0.1216796727,1.000001819,0.1617758818,0.5192549969,0.1215631915,42,42,-0.01293269452,0,0
3.007650763e-06,2.999891439,0.01797551311,0.1216797542,1.000001817,0.1617758772,0.5192549544,0.121563269,43,43,-0.01292860042,0,0
3.007659009e-06,2.999890539,0.01797552523,0.1216798376,1.000001907,0.1617759054,0.5192549969,0.1215633401,44,44,-0.01292450633,0,0
3.007667447e-06,2.999889343,0.01797553666,0.1216799229,1.000001905,0.1617759007,0.5192549544,0.1215634176,45,45,-0.01292041223,0,0
3.007676079e-06,2.999888443,0.01797554878,0.1216800102,1.000001994,0.1617759289,0.5192549969,0.1215634887,46,46,-0.01291631814,0,0
3.007684903e-06,2.999887246,0.01797556021,0.1216800995,1.000001992,0.1617759243,0.5192549544,0.1215635663,47,47,-0.01291222498,0,0
3.007693921e-06,2.999886346,0.01797557233,0.1216801907,1.000002081,0.1617759525,0.5192549969,0.1215636374,48,48,-0.01290813088,0,0
3.007703131e-06,2.999885149,0.01797558376,0.1216802838,1.000002079,0.1617759478,0.5192549544,0.121563715,49,49,-0.01290403679,0,0
3.007712534e-06,2.999884249,0.01797559589,0.121680379,1.000002169,0.161775976,0.5192549969,0.1215637861,50,50,-0.0128999427,0,0
3.007722131e-06,2.999883052,0.01797560733,0.121680476,1.000002167,0.1617759714,0.5192549544,0.1215638637,51,51,-0.0128958486,0,0
3.00773192e-06,2.99988215,0.01797561946,0.121680575,1.000002256,0.1617759996,0.5192549969,0.1215639348,52,52,-0.01289175544,0,0
3.007741903e-06,2.999880953,0.0179756309,0.121680676,1.000002254,0.161775995,0.5192549544,0.1215640125,53,53,-0.01288766135,0,0
3.007752079e-06,2.999880051,0.01797564304,0.1216807789,1.000002344,0.1617760232,0.5192549969,0.1215640837,54,54,-0.01288356725,0,0
3.007762448e-06,2.999878853,0.01797565449,0.1216808838,1.000002342,0.1617760185,0.5192549544,0.1215641613,55,55,-0.01287947316,0,0
3.00777301e-06,2.999877951,0.01797566663,0.1216809906,1.000002431,0.1617760467,0.5192549969,0.1215642326,56,56,-0.01287537906,0,0
3.007783766e-06,2.999876753,0.01797567808,0.1216810994,1.000002429,0.1617760421,0.5192549544,0.1215643103,57,57,-0.01287128497,0,0
3.007794715e-06,2.99987585,0.01797569023,0.1216812101,1.000002519,0.1617760703,0.5192549969,0.1215643815,58,58,-0.01286719181,0,0
3.007805857e-06,2.999874651,0.0179757017,0.1216813228,1.000002517,0.1617760657,0.5192549544,0.1215644593,59,59,-0.01286309771,0,0
3.007817194e-06,2.999873747,0.01797571385,0.1216814375,1.000002606,0.161776094,0.5192549969,0.1215645306,60,60,-0.01285900362,0,0
3.007828723e-06,2.999872547,0.01797572532,0.1216815541,1.000002604,0.1617760894,0.5192549544,0.1215646084,61,61,-0.01285490952,0,0
3.007840446e-06,2.999871643,0.01797573749,0.1216816726,1.000002694,0.1617761176,0.5192549969,0.1215646798,62,62,-0.01285081543,0,0
3.007852363e-06,2.999870442,0.01797574897,0.1216817932,1.000002692,0.161776113,0.5192549544,0.1215647577,63,63,-0.01284672227,0,0
3.007864474e-06,2.999869537,0.01797576114,0.1216819156,1.000002782,0.1617761412,0.5192549969,0.1215648291,64,64,-0.01284262817,0,0
3.007876779e-06,2.999868335,0.01797577263,0.1216820401,1.00000278,0.1617761367,0.5192549544,0.1215649071,65,65,-0.01283853408,0,0
3.007889278e-06,2.999867429,0.01797578482,0.1216821665,1.00000287,0.1617761649,0.5192549969,0.1215649785,66,66,-0.01283443999,0,0
3.007901971e-06,2.999866227,0.01797579632,0.1216822949,1.000002868,0.1617761603,0.5192549544,0.1215650565,67,67,-0.01283034589,0,0
3.007914858e-06,2.99986532,0.01797580851,0.1216824252,1.000002958,0.1617761886,0.5192549969,0.1215651281,68,68,-0.01282625273,0,0
3.007927939e-06,2.999864116,0.01797582003,0.1216825575,1.000002956,0.161776184,0.5192549544,0.1215652062,69,69,-0.01282215863,0,0
3.007941214e-06,2.999863208,0.01797583223,0.1216826918,1.000003046,0.1617762123,0.5192549969,0.1215652778,70,70,-0.01281806454,0,0
3.007954684e-06,2.999862003,0.01797584376,0.121682828,1.000003044,0.1617762078,0.5192549544,0.121565356,71,71,-0.01281397045,0,0
3.007968349e-06,2.999861094,0.01797585598,0.1216829662,1.000003134,0.1617762361,0.5192549969,0.1215654277,72,72,-0.01280987635,0,0
3.007982208e-06,2.999859888,0.01797586751,0.1216831064,1.000003132,0.1617762315,0.5192549544,0.1215655059,73,73,-0.01280578226,0,0
3.007996262e-06,2.999858978,0.01797587975,0.1216832485,1.000003222,0.1617762598,0.5192549969,0.1215655777,74,74,-0.0128016891,0,0
3.008010511e-06,2.999857771,0.0179758913,0.1216833926,1.00000322,0.1617762553,0.5192549544,0.121565656,75,75,-0.012797595,0,0
3.008024955e-06,2.999856859,0.01797590354,0.1216835387,1.00000331,0.1617762836,0.5192549969,0.1215657279,76,76,-0.01279350091,0,0
3.008039594e-06,2.999855651,0.01797591511,0.1216836867,1.000003309,0.1617762791,0.5192549544,0.1215658063,77,77,-0.01278940681,0,0
3.008054429e-06,2.999854738,0.01797592737,0.1216838367,1.000003399,0.1617763074,0.5192549969,0.1215658783,78,78,-0.01278531272,0,0
3.008069458e-06,2.999853528,0.01797593895,0.1216839887,1.000003397,0.1617763029,0.5192549544,0.1215659568,79,79,-0.01278121956,0,0
3.008084684e-06,2.999852614,0.01797595123,0.1216841427,1.000003487,0.1617763313,0.5192549969,0.1215660289,80,80,-0.01277712546,0,0
3.008100105e-06,2.999851403,0.01797596283,0.1216842987,1.000003486,0.1617763268,0.5192549544,0.1215661075,81,81,-0.01277303137,0,0
3.008115721e-06,2.999850487,0.01797597512,0.1216844566,1.000003576,0.1617763552,0.5192549969,0.1215661796,82,82,-0.01276893727,0,0
3.008131534e-06,2.999849274,0.01797598673,0.1216846165,1.000003574,0.1617763507,0.5192549544,0.1215662584,83,83,-0.01276484318,0,0
3.008147542e-06,2.999848357,0.01797599904,0.1216847784,1.000003665,0.1617763791,0.5192549969,0.1215663306,84,84,-0.01276074909,0,0
3.008163747e-06,2.999847143,0.01797601067,0.1216849423,1.000003663,0.1617763747,0.5192549544,0.1215664095,85,85,-0.01275665592,0,0
3.008180149e-06,2.999846224,0.017976023,0.1216851081,1.000003753,0.1617764031,0.5192549969,0.1215664819,86,86,-0.01275256183,0,0
3.008196746e-06,2.999845008,0.01797603465,0.121685276,1.000003752,0.1617763986,0.5192549544,0.1215665608,87,87,-0.01274846774,0,0
3.008213541e-06,2.999844088,0.017976047,0.1216854458,1.000003843,0.161776427,0.5192549969,0.1215666333,88,88,-0.01274437364,0,0
3.008230532e-06,2.99984287,0.01797605867,0.1216856177,1.000003841,0.1617764226,0.5192549544,0.1215667124,89,89,-0.01274027955,0,0
3.00824772e-06,2.999841948,0.01797607103,0.1216857915,1.000003932,0.1617764511,0.5192549969,0.121566785,90,90,-0.01273618639,0,0
3.008265106e-06,2.999840728,0.01797608272,0.1216859673,1.000003931,0.1617764467,0.5192549544,0.1215668642,91,91,-0.01273209229,0,0
3.008282688e-06,2.999839804,0.01797609511,0.1216861451,1.000004021,0.1617764751,0.5192549969,0.121566937,92,92,-0.0127279982,0,0
3.008300469e-06,2.999838583,0.01797610682,0.1216863249,1.00000402,0.1617764708,0.5192549544,0.1215670163,93,93,-0.0127239041,0,0
3.008318446e-06,2.999837657,0.01797611922,0.1216865067,1.000004111,0.1617764993,0.5192549969,0.1215670892,94,94,-0.01271981001,0,0
3.008336622e-06,2.999836433,0.01797613096,0.1216866905,1.00000411,0.1617764949,0.5192549544,0.1215671687,95,95,-0.01271571685,0,0
3.008354996e-06,2.999835506,0.01797614338,0.1216868763,1.0000042,0.1617765234,0.5192549969,0.1215672417,96,96,-0.01271162275,0,0
3.008373568e-06,2.99983428,0.01797615514,0.1216870641,1.000004199,0.1617765191,0.5192549544,0.1215673213,97,97,-0.01270752866,0,0
3.008392338e-06,2.999833351,0.01797616759,0.1216872539,1.00000429,0.1617765476,0.5192549969,0.1215673945,98,98,-0.01270343456,0,0
3.008411307e-06,2.999832123,0.01797617937,0.1216874457,1.000004289,0.1617765433,0.5192549544,0.1215674742,99,99,-0.01269934047,0,0
3.008430475e-06,2.999831191,0.01797619184,0.1216876396,1.00000438,0.1617765718,0.5192549969,0.1215675475,100,100,-0.01269524638,0,0
3.008449842e-06,2.999829962,0.01797620364,0.1216878354,1.000004379,0.1617765676,0.5192549544,0.1215676274,101,101,-0.01269115321,0,0
3.008469407e-06,2.999829028,0.01797621614,0.1216880333,1.00000447,0.1617765961,0.5192549969,0.1215677009,102,102,-0.01268705912,0,0
3.008489173e-06,2.999827796,0.01797622797,0.1216882331,1.00000447,0.1617765919,0.5192549544,0.1215677809,103,103,-0.01268296503,0,0
3.008509138e-06,2.99982686,0.01797624049,0.121688435,1.000004561,0.1617766205,0.5192549969,0.1215678546,104,104,-0.01267887093,0,0
3.008529302e-06,2.999825626,0.01797625234,0.1216886389,1.00000456,0.1617766163,0.5192549544,0.1215679348,105,105,-0.01267477684,0,0
3.008549667e-06,2.999824687,0.01797626489,0.1216888449,1.000004651,0.1617766449,0.5192549969,0.1215680086,106,106,-0.01267068367,0,0
3.008570232e-06,2.999823451,0.01797627677,0.1216890528,1.000004651,0.1617766407,0.5192549544,0.121568089,107,107,-0.01266658958,0,0
3.008590997e-06,2.99982251,0.01797628934,0.1216892628,1.000004742,0.1617766693,0.5192549969,0.1215681629,108,108,-0.01266249549,0,0
3.008611963e-06,2.999821271,0.01797630125,0.1216894748,1.000004741,0.1617766652,0.5192549544,0.1215682435,109,109,-0.01265840139,0,0
3.00863313e-06,2.999820328,0.01797631385,0.1216896888,1.000004833,0.1617766938,0.5192549969,0.1215683176,110,110,-0.0126543073,0,0
3.008654498e-06,2.999819087,0.01797632578,0.1216899049,1.000004833,0.1617766897,0.5192549544,0.1215683983,111,111,-0.01265021414,0,0
3.008676068e-06,2.999818141,0.01797633841,0.121690123,1.000004924,0.1617767184,0.5192549969,0.1215684726,112,112,-0.01264612004,0,0
3.008697839e-06,2.999816897,0.01797635037,0.1216903431,1.000004924,0.1617767143,0.5192549544,0.1215685535,113,113,-0.01264202595,0,0
3.008719811e-06,2.999815949,0.01797636303,0.1216905653,1.000005015,0.161776743,0.5192549969,0.121568628,114,114,-0.01263793185,0,0
3.008741986e-06,2.999814702,0.01797637502,0.1216907895,1.000005015,0.1617767389,0.5192549544,0.1215687091,115,115,-0.01263383776,0,0
3.008764364e-06,2.999813751,0.01797638771,0.1216910158,1.000005107,0.1617767677,0.5192549969,0.1215687838,116,116,-0.01262974367,0,0
3.008786943e-06,2.999812502,0.01797639973,0.1216912441,1.000005107,0.1617767636,0.5192549544,0.1215688651,117,117,-0.0126256505,0,0
3.008809726e-06,2.999811549,0.01797641245,0.1216914745,1.000005199,0.1617767924,0.5192549969,0.1215689399,118,118,-0.01262155641,0,0
3.008832712e-06,2.999810296,0.0179764245,0.1216917069,1.000005199,0.1617767884,0.5192549544,0.1215690214,119,119,-0.01261746231,0,0
3.008855901e-06,2.99980934,0.01797643725,0.1216919413,1.000005291,0.1617768172,0.5192549969,0.1215690965,120,120,-0.01261336822,0,0
3.008879294e-06,2.999808085,0.01797644934,0.1216921779,1.000005291,0.1617768132,0.5192549544,0.1215691781,121,121,-0.01260927413,0,0
3.00890289e-06,2.999807126,0.01797646212,0.1216924165,1.000005383,0.161776842,0.5192549969,0.1215692534,122,122,-0.01260518096,0,0
3.008926691e-06,2.999805868,0.01797647424,0.1216926571,1.000005383,0.1617768381,0.5192549544,0.1215693353,123,123,-0.01260108687,0,0
3.008950696e-06,2.999804906,0.01797648705,0.1216928998,1.000005476,0.161776867,0.5192549969,0.1215694107,124,124,-0.01259699278,0,0
3.008974906e-06,2.999803645,0.0179764992,0.1216931446,1.000005476,0.161776863,0.5192549544,0.1215694929,125,125,-0.01259289868,0,0
3.00899932e-06,2.99980268,0.01797651205,0.1216933915,1.000005568,0.161776892,0.5192549969,0.1215695685,126,126,-0.01258880459,0,0
3.00902394e-06,2.999801416,0.01797652423,0.1216936404,1.000005569,0.1617768881,0.5192549544,0.1215696509,127,127,-0.01258471143,0,0
3.009048766e-06,2.999800448,0.01797653711,0.1216938914,1.000005661,0.161776917,0.5192549969,0.1215697267,128,128,-0.01258061733,0,0
3.009073797e-06,2.999799181,0.01797654934,0.1216941445,1.000005662,0.1617769132,0.5192549544,0.1215698093,129,129,-0.01257652324,0,0
3.009099035e-06,2.99979821,0.01797656225,0.1216943996,1.000005755,0.1617769421,0.5192549969,0.1215698854,130,130,-0.01257242914,0,0
3.009124478e-06,2.99979694,0.01797657451,0.1216946569,1.000005756,0.1617769383,0.5192549544,0.1215699682,131,131,-0.01256833505,0,0
3.009150129e-06,2.999795965,0.01797658746,0.1216949162,1.000005848,0.1617769673,0.5192549969,0.1215700445,132,132,-0.01256424095,0,0
3.009175986e-06,2.999794692,0.01797659975,0.1216951776,1.000005849,0.1617769636,0.5192549544,0.1215701275,133,133,-0.01256014779,0,0
3.009202051e-06,2.999793714,0.01797661274,0.1216954412,1.000005942,0.1617769926,0.5192549969,0.1215702041,134,134,-0.0125560537,0,0
3.009228323e-06,2.999792437,0.01797662507,0.1216957068,1.000005943,0.1617769889,0.5192549544,0.1215702873,135,135,-0.0125519596,0,0
3.009254804e-06,2.999791456,0.0179766381,0.1216959745,1.000006036,0.161777018,0.5192549969,0.1215703641,136,136,-0.01254786551,0,0
3.009281492e-06,2.999790176,0.01797665047,0.1216962443,1.000006038,0.1617770143,0.5192549544,0.1215704476,137,137,-0.01254377142,0,0
3.009308389e-06,2.999789191,0.01797666353,0.1216965163,1.000006131,0.1617770434,0.5192549969,0.1215705246,138,138,-0.01253967825,0,0
3.009335495e-06,2.999787908,0.01797667594,0.1216967903,1.000006132,0.1617770397,0.5192549544,0.1215706083,139,139,-0.01253558416,0,0
3.009362811e-06,2.99978692,0.01797668904,0.1216970665,1.000006225,0.1617770689,0.5192549969,0.1215706856,140,140,-0.01253149007,0,0
3.009390335e-06,2.999785632,0.01797670149,0.1216973447,1.000006227,0.1617770653,0.5192549544,0.1215707696,141,141,-0.01252739597,0,0
3.00941807e-06,2.999784641,0.01797671463,0.1216976251,1.00000632,0.1617770945,0.5192549969,0.1215708471,142,142,-0.01252330188,0,0
3.009446014e-06,2.99978335,0.01797672712,0.1216979076,1.000006322,0.1617770909,0.5192549544,0.1215709314,143,143,-0.01251920871,0,0
3.00947417e-06,2.999782355,0.01797674031,0.1216981923,1.000006415,0.1617771201,0.5192549969,0.1215710092,144,144,-0.01251511462,0,0
3.009502536e-06,2.99978106,0.01797675284,0.121698479,1.000006417,0.1617771166,0.5192549544,0.1215710937,145,145,-0.01251102053,0,0
3.009531113e-06,2.999780061,0.01797676606,0.1216987679,1.000006511,0.1617771459,0.5192549969,0.1215711717,146,146,-0.01250692643,0,0
3.009559902e-06,2.999778763,0.01797677864,0.121699059,1.000006513,0.1617771424,0.5192549544,0.1215712565,147,147,-0.01250283234,0,0
3.009588903e-06,2.99977776,0.0179767919,0.1216993522,1.000006607,0.1617771717,0.5192549969,0.1215713348,148,148,-0.01249873824,0,0
3.009618116e-06,2.999776458,0.01797680452,0.1216996475,1.000006609,0.1617771683,0.5192549544,0.1215714199,149,149,-0.01249464508,0,0
3.009647541e-06,2.999775452,0.01797681783,0.121699945,1.000006703,0.1617771976,0.5192549969,0.1215714985,150,150,-0.01249055099,0,0
3.00967718e-06,2.999774145,0.01797683049,0.1217002446,1.000006706,0.1617771942,0.5192549544,0.1215715838,151,151,-0.01248645689,0,0
