"epsilon","mach_number","pressure","rad_temp","rho","rhoE","rhou","temperature","GlobalNodeId","PedigreeNodeId","Points:0","Points:1","Points:2"
1.6531131185748721161e-05,2.9999333062540292083,0.099160876012735987839,0.18631040728811901208,5.5165846422924760262,0.89244788565957144932,2.8645140224865341949,0.18629823994706040668,1,1,-0.016003377735614776611,0,0
1.6531131640543597373e-05,2.9999330940041026849,0.099160887952598711359,0.1863104085695349299,5.5165846397393840661,0.8924478878784719571,2.8645139916055928353,0.18629826246526609568,2,2,-0.01599232107400894165,0,0
1.6531132622371545038e-05,2.9999329217369448131,0.099160899844531635861,0.18631041133590275916,5.5165847306827116014,0.89244790949113117495,2.8645140224865510703,0.18629828173599513597,3,3,-0.015981264412403106689,0,0
1.6531134130487524142e-05,2.9999327100381103506,0.099160911749955768513,0.18631041558512306811,5.5165847280031421462,0.89244791167540760135,2.864513991605576404,0.18629830419377030326,4,4,-0.015970207750797271729,0,0
1.6531136164165590179e-05,2.9999325383080592822,0.099160923608319392897,0.18631042131515018756,5.5165848188233308491,0.8924479332543316934,2.864514022486569278,0.18629832340558863391,5,5,-0.015959151089191436768,0,0
1.6531138722791759459e-05,2.999932327064696036,0.099160935485232179487,0.18631042852425377943,5.5165848160392503274,0.89244793540991185221,2.8645139916055581963,0.18629834581332718746,6,6,-0.015948092564940452576,0,0
1.6531141805770696568e-05,2.9999321557764573321,0.099160947315933639645,0.18631043721075590813,5.5165849067582097831,0.89244795696100953641,2.8645140224865888179,0.18629836497659291172,7,7,-0.015937035903334617615,0,0
1.653114541261871859e-05,2.999931944893454272,0.09916095917023051709,0.18631044737329313654,5.516584903891486924,0.89244795909378826781,2.864513991605541321,0.18629838734463244343,8,8,-0.015925979241728782654,0,0
1.6531149542870387695e-05,2.9999317739522495252,0.099160970979144655302,0.18631045901055337533,5.5165849945309961555,0.89244798062293451135,2.8645140224866074696,0.18629840646964734852,9,9,-0.015914922580122947693,0,0
1.653115419617163056e-05,2.9999315633350320809,0.099160982816687753827,0.18631047212153814541,5.5165849916033637967,0.89244798273877434802,2.8645139916055213369,0.18629842880826741336,10,10,-0.015903865918517112732,0,0
1.6531159372186256419e-05,2.9999313926465305258,0.099160994609661462507,0.18631048670529926081,5.5165850821851147856,0.89244800425181614045,2.8645140224866256773,0.18629844790528382603,11,11,-0.01589280739426612854,0,0
1.6531165070689184902e-05,2.9999311822009921968,0.099161006436283880006,0.18631050276120153519,5.5165850792182009599,0.89244800635655063825,2.8645139916055009088,0.18629847022471290874,12,12,-0.015881750732660293579,0,0
1.6531171291472872607e-05,2.9999310116713369112,0.099161018219134797191,0.18631052028865902059,5.5165851697637755535,0.89244802785930665845,2.8645140224866452172,0.18629848930393186346,13,13,-0.015870694071054458618,0,0
1.6531178034440683239e-05,2.9999308013037446763,0.099161030040646122585,0.18631053928739824133,5.5165851667791319102,0.89244802995874494833,2.8645139916054822571,0.18629851161435689866,14,14,-0.015859637409448623657,0,0
1.6531185299513202378e-05,2.999930630839462431,0.099161041819167752842,0.18631055975719404416,5.5165852573099982692,0.89244805145700856208,2.8645140224866625367,0.18629853068593796306,15,15,-0.015848580747842788696,0,0
1.6531193086721743138e-05,2.9999304204564469778,0.099161053641355134669,0.18631058169813324854,5.516585254329093857,0.89244805355693812565,2.8645139916054627172,0.18629855299750655573,16,16,-0.015837522223591804504,0,0
1.6531201396114559291e-05,2.9999302499643829556,0.099161065421321165081,0.1863106051103502192,5.516585344866670404,0.8924480750564830478,2.8645140224866803003,0.18629857207157368704,17,17,-0.015826465561985969543,0,0
1.6531210227850476292e-05,2.999930039472919141,0.099161077249950130286,0.18631062999429079396,5.5165853419108934474,0.8924480771626691622,2.8645139916054445095,0.18629859439439544477,18,18,-0.015815408900380134583,0,0
1.6531219582105040024e-05,2.9999298688602169527,0.099161089037115665579,0.18631065635044782858,5.5165854324765248862,0.89244809866925034481,2.8645140224866985079,0.18629861348104020946,19,19,-0.015804352238774299622,0,0
1.6531229459164218976e-05,2.999929658167525659,0.099161100877936433906,0.18631068417962518002,5.5165854295672032137,0.89244810078744296611,2.86451399160542719,0.18629863582519815002,20,20,-0.015793295577168464661,0,0
1.6531239859330505552e-05,2.9999294873415731644,0.099161112678041257729,0.18631071348267314036,5.5165855201821774045,0.89244812230680015119,2.8645140224867176038,0.18629865493448524716,21,21,-0.0157822389155626297,0,0
1.6531250783016736836e-05,2.9999292763551239638,0.099161124536788491923,0.18631074426075283634,5.516585517340571343,0.89244812444273369234,2.864513991605407206,0.18629867731003535436,22,22,-0.015771180391311645508,0,0
1.6531262230652067152e-05,2.9999291052235155242,0.099161136355559495459,0.18631077651507124693,5.5165856080261308492,0.89244814598059374333,2.8645140224867353673,0.18629869645200677897,23,23,-0.015760123729705810547,0,0
1.6531274202775958233e-05,2.9999288938509223179,0.099161148237958782192,0.18631081024714599148,5.5165856052734918435,0.89244814813999351344,2.8645139916053894424,0.18629871886898827227,24,24,-0.015749067068099975586,0,0
1.6531286699944033197e-05,2.9999287223214006204,0.099161160081113614018,0.18631084545854018075,5.5165856960508463658,0.89244816970207441198,2.8645140224867562395,0.18629873805366978234,25,25,-0.015738010406494140625,0,0
1.6531299722822202243e-05,2.9999285104704154215,0.09916117199288169981,0.18631088215112753814,5.5165856934083725704,0.89244817189065539509,2.8645139916053712348,0.18629876052210717075,26,26,-0.015726953744888305664,0,0
1.6531313272092418374e-05,2.9999283384508403927,0.099161183866130528375,0.1863109203268268621,5.5165857842987122694,0.89244819348266712922,2.8645140224867793322,0.18629877975951109059,27,27,-0.015715895220637321472,0,0
1.6531327348546914893e-05,2.9999281260293431117,0.099161195812976415942,0.18631095998786756374,5.5165857817875618707,0.89244819570613875825,2.8645139916053516949,0.18629880228941556042,28,28,-0.015704838559031486511,0,0
1.6531341952993900145e-05,2.9999279534275911097,0.09916120772202824396,0.18631100113652399042,5.5165858728120777954,0.89244821733378953965,2.8645140224868042012,0.1862988215895520494,29,29,-0.01569378189742565155,0,0
1.6531357086351889882e-05,2.9999277403434279066,0.099161219709662476451,0.18631104377538110217,5.5165858704534391777,0.89244821959786035936,2.8645139916053321549,0.18629884419093675763,30,30,-0.015682725235819816589,0,0
1.6531372749555317298e-05,2.9999275670674636629,0.099161231660220797157,0.18631108790706862877,5.5165859616332761917,0.89244824126685373678,2.8645140224868268497,0.18629886356380714885,31,31,-0.015671668574213981628,0,0
1.6531388943648990758e-05,2.9999273532285641863,0.099161243694349088251,0.18631113353452721793,5.5165859594483155348,0.89244824357722984942,2.864513991605312615,0.18629888624667684249,32,32,-0.015660611912608146667,0,0
1.6531405669693615741e-05,2.9999271791862520686,0.099161255692123209671,0.18631118066074212059,5.5165860508046540289,0.89244826529327370146,2.8645140224868486101,0.18629890570229218349,33,33,-0.015649553388357162476,0,0
1.6531422928860374538e-05,2.9999269645004469353,0.099161267778457073963,0.18631122928900975544,5.5165860488145588292,0.89244826765566565019,2.8645139916052908546,0.18629892847666182365,34,34,-0.015638496726751327515,0,0
1.6531440722336339778e-05,2.999926789599630883,0.099161279829157830679,0.1863112794226711999,5.516586140368593405,0.89244828942447107512,2.8645140224868717027,0.18629894802503557671,35,35,-0.015627440065145492554,0,0
1.653145905141919982e-05,2.9999265739746241444,0.099161291973416249013,0.18631133106537911548,5.5165861385945822448,0.89244829184459562033,2.8645139916052686502,0.18629897090093316958,36,36,-0.015616383403539657593,0,0
1.6531477917422570626e-05,2.9999263981230419596,0.099161304082760831635,0.18631138422083085016,5.5165862303675146094,0.89244831367187971161,2.8645140224868939072,0.18629899055209045433,37,37,-0.015605325810611248016,0,0
1.6531497321770836353e-05,2.9999261814664262005,0.099161316290669834772,0.18631143889303580785,5.5165862288308309402,0.89244831615546171832,2.8645139916052451134,0.18629901353955627408,38,38,-0.015594269149005413055,0,0
1.6531517265904379916e-05,2.9999260045716225065,0.099161328464387063497,0.18631149508604821774,5.5165863208439178678,0.89244833804695233859,2.8645140224869152235,0.18629903330354227742,39,39,-0.015583212487399578094,0,0
1.6531537751374545547e-05,2.9999257867908162289,0.099161340741683451361,0.18631155280423492004,5.5165863195658442208,0.89244834059972810714,2.8645139916052206885,0.18629905641263563854,40,40,-0.015572154894471168518,0,0
1.6531558779748764326e-05,2.9999256087601477994,0.099161352985513789848,0.18631161205200791331,5.5165864118403886707,0.89244836256116444329,2.8645140224869365397,0.18629907629951572567,41,41,-0.015561098232865333557,0,0
1.6531580352705665818e-05,2.9999253897623376908,0.099161365337948378929,0.18631167283409241775,5.5165864108422537626,0.89244836518888381871,2.8645139916051944873,0.18629909954032064512,42,42,-0.015550040639936923981,0,0
1.6531602471940085025e-05,2.9999252105028677562,0.099161377657650401352,0.18631173515525908946,5.5165865033996315248,0.89244838722602337633,2.8645140224869587442,0.18629911956019190589,43,43,-0.01553898397833108902,0,0
1.6531625139258299378e-05,2.9999249901949931463,0.099161390090989370849,0.18631179902059252784,5.5165865027028235801,0.89244838993445141373,2.8645139916051678419,0.1862991429428192125,44,44,-0.015527927316725254059,0,0
1.6531648356482964537e-05,2.9999248096135056052,0.099161402492338610037,0.18631186443522329554,5.5165865955644690644,0.89244841205306824072,2.8645140224869809487,0.18629916310580857397,45,45,-0.015516869723796844482,0,0
1.6531672125548449643e-05,2.9999245879021714245,0.099161415012368622768,0.18631193140459656465,5.51658659519044825,0.89244841484799009024,2.8645139916051380879,0.18629918664040526211,46,46,-0.015505813062191009521,0,0
1.6531696448405698579e-05,2.9999244059051397571,0.099161427501160137599,0.18631199993420410888,5.5165866883778669205,0.89244843705387932875,2.8645140224870035972,0.18629920695667379071,47,47,-0.015494756400585174561,0,0
1.6531721327117687194e-05,2.9999241826965601376,0.099161440113692003728,0.18631207002985317178,5.5165866883482070904,0.8924484399411044544,2.8645139916051109985,0.18629923065342832156,48,48,-0.015483698807656764984,0,0
1.6531746763764165975e-05,2.9999239991900616964,0.099161452695744931041,0.18631214169739812592,5.5165867818829825708,0.89244846224008367308,2.8645140224870266898,0.18629925113317982732,49,49,-0.015472642146050930023,0,0
1.6531772760537269743e-05,2.9999237743900351028,0.099161465406615023621,0.18631221494300986841,5.5165867822193579428,0.89244846522544640788,2.864513991605088794,0.18629927500232532078,50,50,-0.015461585484445095062,0,0
1.6531799319646172232e-05,2.9999235892797084801,0.099161478087775631329,0.18631228977290706372,5.5165868761231786621,0.89244848762336026482,2.864514022487052447,0.18629929565581099249,51,51,-0.015450527891516685486,0,0
1.6531826443412790651e-05,2.9999233627936638946,0.099161490902843291151,0.18631236619362598339,5.5165868768473140804,0.89244849071271925567,2.8645139916050648132,0.18629931970762195204,52,52,-0.015439471229910850525,0,0
1.6531854134176362337e-05,2.9999231759846369805,0.099161503688989321992,0.18631244421175149895,5.5165869711420052468,0.89244851321544349521,2.8645140224870795365,0.18629934054514754593,53,53,-0.015428413636982440948,0,0
1.6531882394389274679e-05,2.9999229477174331748,0.099161516614148764726,0.18631252383418714369,5.5165869722757667759,0.89244851641469058467,2.8645139916050403883,0.18629936478995925975,54,54,-0.015417356975376605988,0,0
1.6531911226521546899e-05,2.9999227591144128624,0.099161529511184259844,0.18631260506788591136,5.5165870669832335338,0.89244853902812915081,2.8645140224871075141,0.1862993858218771337,55,55,-0.015406300313770771027,0,0
1.6531940633156792119e-05,2.9999225289703410624,0.099161542552364978498,0.18631268792012073421,5.5165870685486408931,0.89244854234319159758,2.8645139916050195161,0.18629941027008597998,56,56,-0.01539524272084236145,0,0
1.6531970616896583945e-05,2.9999223384774258427,0.099161555566230949466,0.18631277239821497638,5.5165871636909047382,0.89244856507328229611,2.8645140224871297185,0.18629943150681418929,57,57,-0.015384186059236526489,0,0
1.6532001180456557438e-05,2.9999221063602545811,0.099161568729394827804,0.18631285850981318952,5.5165871657100931102,0.89244856851012177579,2.8645139916049981998,0.18629945616887350068,58,58,-0.015373129397630691528,0,0
1.6532032326570691007e-05,2.9999219138808861373,0.099161581866073225666,0.1863129462626114119,5.516587261309353174,0.89244859136284393486,2.8645140224871505907,0.18629947762090079411,59,59,-0.015362071804702281952,0,0
1.6532064058087515796e-05,2.9999216796937413498,0.099161595157221713026,0.18631303566462831256,5.5165872638045971854,0.89244859492746031471,2.8645139916049764395,0.18629950250733351425,60,60,-0.015351015143096446991,0,0
1.6532096377874306095e-05,2.9999214851307778318,0.099161608422730543322,0.18631312672393515739,5.5165873598831876023,0.892448617908830788,2.8645140224871714629,0.18629952418521200652,61,61,-0.015339957550168037415,0,0
1.6532129288913427641e-05,2.9999212487760811285,0.099161621847908554273,0.18631321944892725861,5.5165873628769332981,0.89244862160726667888,2.8645139916049577877,0.18629954930661699053,62,62,-0.015328900888562202454,0,0
1.6532162794206416222e-05,2.999921052031643498,0.099161635248311119639,0.18631331384805382978,5.516587459457343634,0.89244864472334606287,2.8645140224871910029,0.18629957122097851041,63,63,-0.015317844226956367493,0,0
1.6532196896870458115e-05,2.9999208134111428059,0.099161648813605354769,0.1863134099300896851,5.5165874629721649569,0.89244864856168670819,2.864513991604934251,0.18629959658802869304,64,64,-0.015306786634027957916,0,0
1.6532231600042383987e-05,2.9999206143866050667,0.099161662355011517822,0.18631350770386481686,5.516587560077086394,0.89244867181858333893,2.8645140224872109869,0.18629961874958586576,65,65,-0.015295729972422122955,0,0
1.6532266906975250976e-05,2.9999203734012209743,0.099161676066559581444,0.18631360717853648334,5.5165875641357766668,0.89244867580296383114,2.8645139916049147111,0.18629964437304252778,66,66,-0.015284673310816287994,0,0
1.653230282094226883e-05,2.999920171997195073,0.099161689755126028456,0.18631370836331848095,5.516587661788047825,0.89244869920683200792,2.8645140224872305268,0.18629966679259085671,67,67,-0.015273615717887878418,0,0
1.6532339345333507349e-05,2.9999199285470976584,0.099161703619112154251,0.18631381126775370394,5.5165876664135602425,0.89244870334343562313,2.8645139916048965034,0.18629969268329740761,68,68,-0.015262559056282043457,0,0
1.6532376483559686997e-05,2.9999197246633055869,0.099161717461050596922,0.18631391590144302794,5.5165877646362408981,0.89244872690048382413,2.8645140224872522872,0.18629971537172837492,69,69,-0.015251502394676208496,0,0
1.6532414239149065917e-05,2.999919478647770088,0.099161731483714252167,0.18631402227431820284,5.5165877698517391536,0.8924487311955479063,2.8645139916048827367,0.18629974154062489688,70,70,-0.01524044480174779892,0,0
1.6532452615651111957e-05,2.9999192721831220432,0.09916174548528663979,0.18631413039637056972,5.5165878686680480669,0.89244875491203579099,2.864514022487271383,0.18629976450891894135,71,71,-0.015229388140141963959,0,0
1.6532491616733504885e-05,2.9999190235005088745,0.099161759672923815989,0.18631424027792431453,5.5165878744969090164,0.89244875937185397241,2.8645139916048680817,0.18629979096704454844,72,72,-0.015218330547213554382,0,0
1.6532531246085737259e-05,2.9999188143529429418,0.099161773840452188677,0.18631435192936482426,5.5165879739303296247,0.89244878325410093023,2.8645140224872940315,0.18629981422628605348,73,73,-0.015207273885607719421,0,0
1.6532571507516221677e-05,2.9999185629006759335,0.099161788199416636691,0.18631446536141230141,5.5165879803961246353,0.89244878788502357558,2.8645139916048525386,0.18629984098478180599,74,74,-0.01519621722400188446,0,0
1.6532612404855820496e-05,2.9999183509671838443,0.099161802539281751478,0.18631458058485003693,5.5165880804703295581,0.89244881193940905906,2.8645140224873149037,0.18629986454615912739,75,75,-0.015185159631073474884,0,0
1.6532653942055054724e-05,2.9999180966416960636,0.099161817075988617498,0.18631469761079810787,5.5165880875968689168,0.89244881674784870551,2.8645139916048343309,0.18629989161627333316,76,76,-0.015174102969467639923,0,0
1.6532696123087562594e-05,2.999917881818197074,0.099161831594637331322,0.18631481645044151163,5.5165881883358025561,0.89244884098081578294,2.8645140224873353318,0.18629991549108981808,77,77,-0.015163046307861804962,0,0
1.6532738952047410094e-05,2.999917624514880643,0.099161846315566321008,0.18631493711530436319,5.5165881961471443518,0.89244884597325047082,2.8645139916048192319,0.18629994288418363912,78,78,-0.015151988714933395386,0,0
1.6532782433052475e-05,2.9999174066962561724,0.099161861019509633941,0.18631505961697752971,5.516588297574966937,0.89244887039130760265,2.8645140224873566481,0.18629996708385587745,79,79,-0.015140932053327560425,0,0
1.6532826570341889553e-05,2.9999171463094014278,0.099161875931208343093,0.18631518396739327192,5.5165883060954037376,0.89244887557428131952,2.8645139916048001361,0.18629999481141021334,80,80,-0.015129875391721725464,0,0
1.65328713681793059e-05,2.999916925389399136,0.099161890827027587836,0.18631531017855268439,5.516588408236558827,0.8924489001840072433,2.8645140224873779644,0.18630001934747730807,81,81,-0.015118817798793315887,0,0
1.6532916830950484459e-05,2.9999166618121457795,0.099161905936114763671,0.18631543826280058673,5.5165884174906603121,0.89244890556413558613,2.8645139916047810402,0.18630004742109732008,82,82,-0.015107761137187480927,0,0
1.6532962963066447559e-05,2.9999164376834017709,0.099161921030460037363,0.18631556823255271405,5.5165885203698197259,0.89244893037217776222,2.864514022487395728,0.1863000723052199159,83,83,-0.01509670354425907135,0,0
1.6533009769061233818e-05,2.9999161708076989008,0.099161936343628284685,0.18631570010057110776,5.5165885303824397923,0.89244893595615082393,2.8645139916047619444,0.18630010073663993975,84,84,-0.015085646882653236389,0,0
1.6533057253494919646e-05,2.9999159433615729675,0.099161951643228413156,0.18631583387969088972,5.5165886340245844366,0.89244896096923465034,2.8645140224874134915,0.18630012598061609919,85,85,-0.015074590221047401428,0,0
1.6533105421051495597e-05,2.9999156730781266766,0.099161967167247039301,0.18631596958309601386,5.5165886448208496518,0.89244896676381790801,2.864513991604740184,0.18630015478170533494,86,86,-0.015063532628118991852,0,0
1.6533154276441830276e-05,2.9999154422047658031,0.09916198267890613538,0.1863161072240457905,5.51658874925123488,0.89244899198874572122,2.8645140224874303669,0.18630018039746526481,87,87,-0.015052475966513156891,0,0
1.6533203824501661882e-05,2.9999151684030214149,0.099161998420622635142,0.18631624681615113759,5.5165887608565657985,0.8924489980007838108,2.8645139916047179796,0.18630020958022994182,88,88,-0.01504141930490732193,0,0
1.6533254070094446925e-05,2.9999149339912021262,0.09916201415122942453,0.18631638837310068868,5.5165888661007747018,0.8924490234444402148,2.8645140224874481305,0.18630023557985184168,89,89,-0.015030361711978912354,0,0
1.6533305018209504229e-05,2.999914656559255377,0.099162030117574545551,0.1863165319089373495,5.5165888785408903061,0.89244902968086015083,2.8645139916046939987,0.18630026515644446117,90,90,-0.015019305050373077393,0,0
