"epsilon","mach_number","pressure","rad_temp","rho","rhoE","rhou","temperature","GlobalNodeId","PedigreeNodeId","Points:0","Points:1","Points:2"
1.6531082424999268257e-05,2.9999332868582113676,0.099160876027087396789,0.18631026990119375908,5.5165845960033985662,0.89244787607446696143,2.8645139919678190843,0.18629824153723187341,1,1,-0.016003377735614776611,0,0
1.6531085635757943384e-05,2.9999327047856501061,0.099160913289635263523,0.18631027894774704334,5.516584779936033911,0.89244792283076901374,2.8645140221244251855,0.18629830533263486148,2,2,-0.015968363732099533081,0,0
1.6531094057324044249e-05,2.9999320863585308139,0.09916095043035613732,0.18631030267613463147,5.5165848719678765022,0.89244795047577318847,2.8645139919677586882,0.18629837200269619424,3,3,-0.015933349728584289551,0,0
1.6531107672011522916e-05,2.9999315084348632254,0.099160987432984654122,0.18631034103650800926,5.5165850549495836219,0.89244799697045884557,2.864514022124487358,0.18629843534188231247,4,4,-0.015898337587714195251,0,0
1.6531126469037378914e-05,2.9999308925659979863,0.099161024412372358872,0.18631039399845819582,5.5165851463957160661,0.89244802445236359745,2.8645139919676987361,0.18629850172861370239,5,5,-0.015863323584198951721,0,0
1.6531150443560666484e-05,2.9999303158313428419,0.099161061338544992383,0.18631046154830815942,5.5165853291068653874,0.89244807086890232117,2.8645140221245446455,0.18629856493328797451,6,6,-0.015828309580683708191,0,0
1.6531179597557594808e-05,2.999929699580873077,0.09916109833881583957,0.18631054369157837303,5.5165854206430777751,0.8924480983699288883,2.86451399196763834,0.18629863135620602921,7,7,-0.015793295577168464661,0,0
1.6531213938873284787e-05,2.9999291211124030632,0.099161135369686501106,0.18631064045031503484,5.5165856037555380809,0.89244814488947232789,2.8645140221245961598,0.18629869474402144247,8,8,-0.01575828157365322113,0,0
1.6531253482116090145e-05,2.999928501570050976,0.09916117257121059847,0.18631075186560963619,5.5165856960508747875,0.8924481725899878759,2.8645139919675868256,0.18629876151940183426,9,9,-0.0157232675701379776,0,0
1.6531298247721788654e-05,2.9999279184672955623,0.099161209886534637525,0.18631087799496204305,5.516585880231394512,0.89244821939228080598,2.8645140221246521151,0.1862988254055566173,10,10,-0.01568825356662273407,0,0
1.6531348262866853057e-05,2.9999272927379196929,0.099161247468730534527,0.18631101891485349342,5.5165859739513862792,0.8924482474716886049,2.8645139919675361995,0.18629889284800588145,11,11,-0.01565323956310749054,0,0
1.6531403560544795519e-05,2.9999267021083584339,0.099161285247757885442,0.18631117471814362396,5.5165861598649001962,0.89244829473596354319,2.8645140221247071821,0.18629895754680983466,12,12,-0.015618225559592247009,0,0
1.6531464180498218965e-05,2.9999260672976855169,0.099161323389977990006,0.18631134551669623067,5.5165862556749134527,0.89244832337359525365,2.8645139919674895701,0.18629902597081560156,13,13,-0.015583212487399578094,0,0
1.6531530168307108087e-05,2.9999254662424839069,0.099161361812336840105,0.1863115314388100463,5.5165864439878342651,0.89244837127945209065,2.8645140221247640255,0.1862990917972390803,14,14,-0.015548198483884334564,0,0
1.653160157633956623e-05,2.9999248194429370962,0.099161400694744897266,0.18631173263189679257,5.5165865425562632396,0.89244840065544028818,2.8645139919674349471,0.18629916151871103724,15,15,-0.015513184480369091034,0,0
1.6531678462851964853e-05,2.9999242050429208994,0.099161439941311740887,0.18631194925994537526,5.516586733939731424,0.89244844938372280829,2.8645140221248266421,0.18629922878990984314,16,16,-0.015478170476853847504,0,0
1.6531760892958274488e-05,2.9999235433195416967,0.099161479745755773396,0.18631218150625211694,5.516586835941290623,0.89244847967987472881,2.8645139919673772155,0.18629930012770831715,17,17,-0.015443156473338603973,0,0
1.6531848937742082826e-05,2.9999229126212179075,0.09916151999952144136,0.18631242957091814771,5.5165870310743283511,0.89244852941353336462,2.8645140221248950319,0.18629936916454425955,18,18,-0.015408142469823360443,0,0
1.6531942675244563787e-05,2.9999222329976324986,0.09916156091040320697,0.18631269367363226253,5.5165871371932810874,0.89244856081420131932,2.8645139919673190398,0.18629944244200480341,19,19,-0.015373129397630691528,0,0
1.6532042189588391339e-05,2.999921582999010905,0.099161602357351150139,0.18631297405120145205,5.5165873367660838156,0.89244861173916933961,2.8645140221249740797,0.18629951357058460726,20,20,-0.015338115394115447998,0,0
1.6532147571984444936e-05,2.9999208824433192255,0.099161644562500567135,0.18631327096038641233,5.516587447699458302,0.89244864443212168492,2.8645139919672555351,0.18629958911705221669,21,21,-0.015303101390600204468,0,0
1.6532258919867754592e-05,2.9999202100799307047,0.099161687392473094049,0.18631358467546585422,5.516587652416510501,0.8924486967381800584,2.8645140221250287027,0.18629966267024966609,22,22,-0.015268087387084960938,0,0
1.6532376337923145976e-05,2.9999194854905728569,0.099161731084025289684,0.18631391549112519268,5.5165877688774243026,0.89244873091549026256,2.8645139919671822604,0.18629974082261416268,23,23,-0.015233073383569717407,0,0
1.6532499937233372596e-05,2.9999187876209596482,0.099161775491623693757,0.1863142637200550511,5.5165879794610628295,0.89244878479717471009,2.8645140221251010892,0.18629981714164087214,24,24,-0.015198059380054473877,0,0
1.6532629836323971603e-05,2.9999180358123092027,0.099161820866909722305,0.18631462969589360212,5.5165881021818901075,0.89244882065609587585,2.8645139919671072093,0.18629989824590348357,25,25,-0.015163046307861804962,0,0
1.6532766160323877853e-05,2.9999173092036475197,0.099161867052384444765,0.18631501377086043258,5.5165883193754421399,0.89244887631358227331,2.8645140221251903512,0.18629997768187536722,26,26,-0.015128032304346561432,0,0
1.6532909042029785181e-05,2.9999165268912437732,0.099161914314847041108,0.18631541631875336851,5.5165884491113201804,0.89244891405746795687,2.8645139919670317141,0.18630006209475061252,27,27,-0.015093018300831317902,0,0
1.653305862107959132e-05,2.99991576820456185,0.099161962485013382951,0.18631583773261820025,5.5165886736824978342,0.8924489716974870479,2.8645140221252880508,0.18630014501029357188,28,28,-0.015058004297316074371,0,0
1.6533215045036691557e-05,2.9999149519902084116,0.099162011845130515475,0.18631627842780162929,5.5165888112147358768,0.89244901153671729599,2.8645139919669517781,0.18630023310082935439,29,29,-0.015022990293800830841,0,0
1.6533378468576671248e-05,2.9999141577651458057,0.09916206221431304868,0.18631673883965785277,5.5165890439591587224,0.89244907137349815951,2.8645140221253848622,0.18630031987173456542,30,30,-0.014987976290285587311,0,0
1.6533549054591989246e-05,2.9999133041215602091,0.099162113890549519191,0.18631721942665879777,5.5165891900987977792,0.89244911352643596647,2.8645139919668780593,0.18630041202297964453,31,31,-0.014952963218092918396,0,0
1.6533726973392429621e-05,2.9999124707607229823,0.099162166681550756309,0.18631772066813909183,5.5165894318436148325,0.89244917578267191072,2.8645140221254865587,0.18630050303990111638,32,32,-0.014917949214577674866,0,0
1.6533912403830754238e-05,2.9999115760156458421,0.099162220901341607826,0.18631824306746508357,5.5165895874350239225,0.89244922047663566289,2.8645139919668034523,0.18630059965063139327,33,33,-0.014882935211062431335,0,0
1.6534105532517455781e-05,2.9999106997685935916,0.099162276346434902186,0.18631878714981983669,5.516589839042586263,0.89244928538448264899,2.8645140221255886992,0.18630069532082732531,34,34,-0.014847921207547187805,0,0
1.6534306554968033386e-05,2.9999097600884185866,0.099162333347199871358,0.18631935346543251897,5.5165900049672256245,0.89244933285676508739,2.8645139919667195194,0.186300796807324337,35,35,-0.014812907204031944275,0,0
1.653451567483271443e-05,2.9999088370349142885,0.099162391689166851094,0.18631994258740536274,5.516590267338959741,0.89244940065887645719,2.8645140221256895074,0.18630089755647535887,36,36,-0.01477789413183927536,0,0
1.6534733105066044405e-05,2.9999078484076666662,0.099162451719365038438,0.18632055511500542067,5.5165904445193394423,0.89244945115779916733,2.8645139919666298134,0.18630100435437421669,37,37,-0.01474288012832403183,0,0
1.6534959067172333024e-05,2.9999068744404433495,0.099162513212563613285,0.186321191671535491,5.5165907185996934103,0.89244952210839634255,2.8645140221257991975,0.18630111062845655656,38,38,-0.0147078661248087883,0,0
1.6535193792398401972e-05,2.9999058326580949618,0.099162576532788815342,0.18632185290769043284,5.5165909080034447598,0.89244957589440254697,2.8645139919665512096,0.18630122319466610459,39,39,-0.014672852121293544769,0,0
1.6535437520995521055e-05,2.9999048034646307315,0.099162641444280469338,0.18632253949947430449,5.5165911947840013951,0.89244965026038880485,2.864514022125896453,0.18630133546193061722,40,40,-0.014637838117778301239,0,0
1.6535690503436208299e-05,2.9999037041047258434,0.099162708328399837288,0.18632325215162373611,5.5165913974280460508,0.89244970760718589364,2.864513991966458839,0.18630145427663202806,41,41,-0.014602824114263057709,0,0
1.6535952999693625138e-05,2.9999026151484837754,0.099162776939114294361,0.18632399159557375135,5.5165916979520552843,0.89244978566933053088,2.8645140221260132485,0.18630157302963892829,42,42,-0.014567811042070388794,0,0
1.6536225280483367371e-05,2.9999014535547443572,0.099162847675468693276,0.18632475859295097309,5.5165919149070337113,0.89244984686507922156,2.8645139919663558103,0.18630169859839107449,43,43,-0.014532797038555145264,0,0
1.6536507626561325676e-05,2.9999003000554163023,0.099162920281426758518,0.18632555393359073737,5.5165922302738179539,0.89244992891923125011,2.8645140221261558011,0.18630182435615885717,44,44,-0.014497783035039901733,0,0
1.6536800329991571955e-05,2.9998990713175142098,0.099162995174084722638,0.18632637843910315745,5.51659246266884562,0.89244999426780757812,2.8645139919662607753,0.18630195721209352744,45,45,-0.014462769031524658203,0,0
1.6537103693463772752e-05,2.9998978482302329773,0.099163072087685100175,0.18632723296094463872,5.5165927940385079964,0.89245008062617414701,2.8645140221263152291,0.18630209052235718881,46,46,-0.014427755028009414673,0,0
1.6537418031588336511e-05,2.9998965471625216317,0.09916315145775972395,0.1863281183840599653,5.5165930430659759764,0.89245015044847975094,2.8645139919661444239,0.18630223122849101647,47,47,-0.014392741024494171143,0,0
1.6537743670234592854e-05,2.9998952491561388101,0.099163233009125689721,0.18632903562501140771,5.5165933916644842583,0.89245024144098106245,2.8645140221264715485,0.18630237267006050095,48,48,-0.014357727952301502228,0,0
1.6538080947854511953e-05,2.9998938702752684371,0.099163317196162809042,0.18632998563570038475,5.5165936585853803109,0.89245031607634217607,2.864513991966030293,0.18630252182172316044,49,49,-0.014322713948786258698,0,0
1.6538430214842916828e-05,2.9998924917092613107,0.099163403734571942127,0.18633096940155785548,5.5165940257098240451,0.89245041205203301526,2.8645140221266314207,0.18630267200699174301,50,50,-0.014287699945271015167,0,0
1.6538791834891150415e-05,2.9998910292105707143,0.09916349309801195111,0.18633198794534922005,5.5165943118590723415,0.89245049185965685812,2.8645139919659379224,0.18630283023439195289,51,51,-0.014252685941755771637,0,0
1.6539166184370798117e-05,2.9998895641108642707,0.099163584993394005007,0.18633304232542982626,5.5165946988832397224,0.89245059318822350658,2.8645140221268006187,0.18630298981196197206,52,52,-0.014217671938240528107,0,0
1.6539553653718779789e-05,2.9998880118435700126,0.099163679914108043834,0.18633413363963724496,5.5165950056752715014,0.89245067854872617286,2.8645139919658353378,0.18630315778288522588,53,53,-0.014182657934725284576,0,0
1.6539954646846100414e-05,2.9998864538768552634,0.099163777558637172804,0.18633526302361624882,5.5165954140556818786,0.89245078562208812745,2.8645140221269853598,0.18630332744035546511,54,54,-0.014147644862532615662,0,0
1.6540369582556017041e-05,2.9998848053176128126,0.099163878440565400574,0.18633643165480268111,5.5165957429906198328,0.89245087693913383031,2.8645139919657238714,0.18630350586303318083,55,55,-0.014112630859017372131,0,0
1.654079889397945744e-05,2.9998831477643324028,0.099163982250333376767,0.18633764075082223655,5.5165961742726565831,0.89245099017311257938,2.864514022127195858,0.18630368632993526967,56,56,-0.014077616855502128601,0,0
1.6541243030028020424e-05,2.9998813959893704251,0.099164089522210938088,0.18633889157357108601,5.5165965269426955331,0.89245108787513571791,2.864513991965592421,0.18630387595607142415,57,57,-0.014042602851986885071,0,0
1.6541702454857868363e-05,2.999879631715004269,0.099164199939005728823,0.1863401854276932057,5.516596982767184798,0.89245120771122876668,2.8645140221274187908,0.18630406800698895431,58,58,-0.014007588848471641541,0,0
1.6542177649359434527e-05,2.9998777693706459857,0.09916431405619038908,0.18634152366476250395,5.5165973608634528702,0.8924513122532711229,2.8645139919654489802,0.18630426963496218851,59,59,-0.01397257484495639801,0,0
1.6542669110651690202e-05,2.9998758907952995933,0.099164431549380260833,0.18634290768184422205,5.5165978429736748367,0.89245143916053426558,2.8645140221276599313,0.18630447409283351634,60,60,-0.013937561772763729095,0,0
1.6543177353610619032e-05,2.9998739100665385848,0.099164552995798668777,0.18634433892578405878,5.5165982482934472486,0.89245155102618356491,2.8645139919653033189,0.18630468857110957237,61,61,-0.013902547769248485565,0,0
1.6543702910395928892e-05,2.9998719091327457065,0.0991646780643273551,0.18634581889185905523,5.5165987585425186879,0.8924516855032256224,2.8645140221279232762,0.18630490631072654795,62,62,-0.013867533765733242035,0,0
1.6544246332020448082e-05,2.9998698017101186331,0.099164807354527928496,0.18634734912817974006,5.5165991929968374308,0.89245180520666911317,2.8645139919651652072,0.18630513454145775087,63,63,-0.013832519762217998505,0,0
1.654480818791153506e-05,2.9998676698484860736,0.099164940529042525097,0.18634893123443635465,5.5165997333556191506,0.89245194778377345823,2.8645140221282039406,0.18630536649319637266,64,64,-0.013797505758702754974,0,0
1.6545389067523713969e-05,2.9998654268927551492,0.099165078210382923141,0.18635056686642023638,5.516600198977329228,0.8924520758719772795,2.8645139919650008942,0.18630560943605950497,65,65,-0.013762491755187511444,0,0
1.6545989579937164088e-05,2.99986315498566114,0.099165220055485017725,0.18635225773487204548,5.5166007715428895253,0.89245222711336458232,2.8645140221285045889,0.1863058565898229324,66,66,-0.013727478682994842529,0,0
1.6546610355516118857e-05,2.9998607670903267852,0.099165366710456309685,0.18635400561012877008,5.5166012704953617529,0.89245236416840512117,2.8645139919648263671,0.18630611526609092143,67,67,-0.013692464679479598999,0,0
1.6547252045546999852e-05,2.9998583454332488074,0.099165517827097662829,0.18635581232108100469,5.5166018774998066831,0.89245252467462010681,2.8645140221288456495,0.18630637867551180786,68,68,-0.013657450675964355469,0,0
1.6547915323945245773e-05,2.9998558025846371322,0.099165674075796864106,0.1863576797599528212,5.5166024120861081315,0.89245267131614891554,2.8645139919646571691,0.18630665417238895243,69,69,-0.013622436672449111938,0,0
1.654860088693583533e-05,2.9998532208450869874,0.099165835103823471441,0.18635960988137512118,5.5166030559059429095,0.89245284172659744559,2.8645140221292173521,0.18630693495929268044,70,70,-0.013587422668933868408,0,0
1.6549309454811436264e-05,2.9998505123799721339,0.099166001606580414518,0.18636160470730614436,5.5166036285786201887,0.89245299861447002776,2.864513991964492412,0.18630722843451894,71,71,-0.013552409596741199493,0,0
1.6550041771658254665e-05,2.9998477595536678919,0.099166173227449333494,0.18636366632622872186,5.5166043117449135025,0.8924531796101373704,2.8645140221296161442,0.18630752779368395244,72,72,-0.013517395593225955963,0,0
1.6550798607168563503e-05,2.9998448741142267338,0.099166350687618559645,0.18636579689821966554,5.5166049251163293832,0.89245334744720461462,2.8645139919643352044,0.18630784048043075307,73,73,-0.013482381589710712433,0,0
1.6551580756415042888e-05,2.9998419384785672825,0.099166533627281797103,0.18636799865427908229,5.5166056503254763399,0.892453539753539693,2.8645140221300593453,0.18630815968464287113,74,74,-0.013447367586195468903,0,0
1.6552389041720991551e-05,2.9998388639642699083,0.0991667227942235191,0.18637027390155733175,5.5166063071788240535,0.89245371928861716437,2.8645139919641740001,0.18630849289674100699,75,75,-0.013412353582680225372,0,0
1.6553224312486502123e-05,2.9998357330288651923,0.099166917826193926033,0.18637262502282528343,5.5166070773038224928,0.89245392367859233129,2.8645140221305163131,0.18630883330217185012,76,76,-0.013377339579164981842,0,0
1.655408744711986906e-05,2.9998324565453655666,0.099167119498443659364,0.18637505448186814094,5.5166077806050184407,0.89245411570964139347,2.8645139919640056902,0.18630918843966420839,77,77,-0.013342326506972312927,0,0
1.6554979352919251353e-05,2.9998291169991886385,0.099167327447072226021,0.18637756482310621764,5.5166085987078190556,0.89245433300703747026,2.8645140221310256834,0.186309551491610631,78,78,-0.013307312503457069397,0,0
1.6555900968068990281e-05,2.9998256248038441818,0.099167542475716172201,0.18638015867716500873,5.5166093516178920098,0.89245453838452060147,2.8645139919638258341,0.18630993004667453783,79,79,-0.013272298499941825867,0,0
1.6556853261580622028e-05,2.9998220624590872241,0.099167764219671952763,0.18638283876065692146,5.5166102209621881158,0.89245476946739810131,2.8645140221315816831,0.1863103172856641343,80,80,-0.013237284496426582336,0,0
1.6557837235358164246e-05,2.9998183399029922924,0.099167993511942442719,0.1863856078819380313,5.516611026850774202,0.89245498909788645303,2.8645139919636481984,0.1863107208489095945,81,81,-0.013202270492911338806,0,0
1.655885392420255111e-05,2.999814539635128785,0.099168229987928485647,0.18638846894106128604,5.5166119509158315637,0.89245523490229716757,2.8645140221321976348,0.18631113391721368377,82,82,-0.013167256489396095276,0,0
1.6559904397950211947e-05,2.9998105711012872376,0.099168474511036844299,0.18639142493573118697,5.5166128133753273843,0.8924554697522935065,2.8645139919634701187,0.18631156418440572575,83,83,-0.013132243417203426361,0,0
1.6560989761545357021e-05,2.9998065167853260604,0.099168726717742919363,0.18639447896143970795,5.5166137958706373823,0.89245573127622979115,2.8645140221328624364,0.18631200483296989079,84,84,-0.013097229413688182831,0,0
1.6562111157256388324e-05,2.9998022856227630761,0.099168987502966265968,0.18639763421763083651,5.5166147187315015543,0.89245598237626211358,2.8645139919633146874,0.18631246361218858909,85,85,-0.013062215410172939301,0,0
1.6563269764820752369e-05,2.9997979600651611953,0.099169256505290515058,0.18640089400803119823,5.5166157636124495411,0.89245626068386996188,2.8645140221335760877,0.18631293370803386766,86,86,-0.01302720140665769577,0,0
1.6564466803744116259e-05,2.9997934485188233467,0.099169534652318439005,0.18640426174703689233,5.5166167509591907958,0.89245652913282791374,2.8645139919631628089,0.18631342292729957677,87,87,-0.01299218740314245224,0,0
1.6565703533522832422e-05,2.9997888333850637466,0.099169821585860976065,0.18640774096025192197,5.5166178624439110578,0.89245682535891346365,2.8645140221343696751,0.18631392446139399821,88,88,-0.01295717339962720871,0,0
1.6566981256031067189e-05,2.9997840225208491916,0.099170118267444762328,0.18641133529111034162,5.5166189186324059435,0.89245711232868885077,2.8645139919630246972,0.18631444617681583442,89,89,-0.012922160327434539795,0,0
1.6568301315826254431e-05,2.9997790982582199781,0.099170424343296592617,0.18641504850163606588,5.5166201012193916142,0.89245742768349478613,2.8645140221352392018,0.18631498127247569929,90,90,-0.012887146323919296265,0,0
