"epsilon","mach_number","pressure","rad_temp","rho","rhoE","rhou","temperature","GlobalNodeId","PedigreeNodeId","Points:0","Points:1","Points:2"
1.6531197427252116279e-05,2.999933298919763569,0.099160876064047831502,0.1863105939278412726,5.5165846283966706309,0.89244788261739604884,2.8645140128718424855,0.18629824051273172203,1,1,-0.016003377735614776611,0,0
1.653120438202590589e-05,2.9999323658752472532,0.099160933447311652711,0.18631061352333391778,5.5165848227308975638,0.8924479364435033979,2.8645140012204728386,0.18629834175860848777,2,2,-0.015950856730341911316,0,0
1.6531223357582634293e-05,2.9999314526929112823,0.099160990485356051427,0.18631066698807269288,5.5165850527996962427,0.89244799703438304483,2.8645140128718740158,0.18629844114911978115,3,3,-0.015898337587714195251,0,0
1.6531254310368826181e-05,2.9999305265090137063,0.099161047436996607729,0.18631075419925582914,5.5165852455626893658,0.89244805042484898205,2.8645140012204404201,0.18629854163713224779,4,4,-0.015845816582441329956,0,0
1.6531297229679397951e-05,2.9999296151413492595,0.099161104356181709041,0.18631087512657909522,5.5165854752203911104,0.89244811089289777239,2.8645140128719042139,0.18629864081820401989,5,5,-0.015793295577168464661,0,0
1.6531352138237590671e-05,2.9999286856375642074,0.099161161507193673614,0.18631102983386924055,5.5165856687523584512,0.89244816447872166165,2.8645140012204008961,0.18629874165480145298,6,6,-0.015740774571895599365,0,0
1.6531419091116663256e-05,2.9999277659815470898,0.099161218933679379228,0.18631121847604442676,5.5165859003214858802,0.89244822545009105941,2.8645140128719615014,0.18629884172439667434,7,7,-0.01568825356662273407,0,0
1.6531498176509479498e-05,2.9999268231033022758,0.099161276907184500717,0.18631144130128080016,5.5165860969336861785,0.89244827985435082329,2.8645140012203551549,0.18629894400221419515,8,8,-0.015635732561349868774,0,0
1.6531589514827891815e-05,2.9999258851253971514,0.099161335462756489134,0.18631169864847205164,5.5165863327208182199,0.89244834195077082928,2.8645140128720267825,0.18629904605061539669,9,9,-0.015583212487399578094,0,0
1.6531693259657845438e-05,2.9999249188317280712,0.099161394880966619025,0.1863119909499169613,5.5165865347214744219,0.89244839779559159698,2.8645140012202885416,0.18629915086068041252,10,10,-0.015530691482126712799,0,0
1.6531809597033332262e-05,2.999923952456787557,0.099161455189924058162,0.18631231872926945492,5.5165867770428640426,0.89244846164126756527,2.864514012872104054,0.18629925598256502628,11,11,-0.015478170476853847504,0,0
1.6531938746574945429e-05,2.9999229526101114374,0.099161516680973685323,0.18631268260474129206,5.5165869867625856315,0.8924485195546600913,2.8645140012202436886,0.18629936442627537119,12,12,-0.015425649471580982208,0,0
1.653208096093729875e-05,2.9999219476115164262,0.099161579376934871899,0.18631308328753909409,5.5165872379692313388,0.89244858578305563679,2.8645140128721648942,0.18629947373265498545,13,13,-0.015373129397630691528,0,0
1.6532236527130926649e-05,2.9999209038680323403,0.099161643581672953562,0.18631352158558187049,5.5165874577861222505,0.89244864640570331638,2.8645140012201970592,0.18629958693369105815,14,14,-0.015320608392357826233,0,0
1.6532405766144033134e-05,2.999919849758070356,0.099161709314371973556,0.18631399840242734989,5.516587720289176211,0.89244871566636119198,2.8645140128722141881,0.18629970156382241742,15,15,-0.015268087387084960938,0,0
1.6532589034449624292e-05,2.9999187514576264313,0.099161776893186628912,0.18631451474150914627,5.5165879526541949929,0.89244877965844326972,2.8645140012201717461,0.18629982068011252672,16,16,-0.015215566381812095642,0,0
1.6532786723804371851e-05,2.9999176373766003323,0.099161846335343167835,0.18631507170556002584,5.5165882289503826996,0.8924488526238402164,2.8645140128722603734,0.18629994181354567195,17,17,-0.015163046307861804962,0,0
1.6532999262944823756e-05,2.9999164734309142766,0.099161917975087637833,0.18631567050137942676,5.5165884764129504703,0.89244892067195269458,2.864514001220161088,0.18630006804941323661,18,18,-0.015110525302588939667,0,0
1.6533227117568135867e-05,2.9999152880340100857,0.099161991829418497102,0.18631631243976642942,5.5165887691107364788,0.89244899804452304526,2.8645140128723434181,0.18630019691828061945,19,19,-0.015058004297316074371,0,0
1.6533470792223133999e-05,2.9999140468118956626,0.09916206825052140128,0.18631699894083347813,5.5165890343450971756,0.89244907086877933722,2.8645140012201699697,0.18630033153691216707,20,20,-0.015005483292043209076,0,0
1.6533730830479642583e-05,2.9999127781526242487,0.099162147256959556896,0.1863177315344675955,5.5165893461911572615,0.89244915338810981709,2.8645140128723940443,0.18630046943859712716,21,21,-0.014952963218092918396,0,0
1.6534007817022180711e-05,2.9999114473611339093,0.099162229220790570894,0.18631851186621167793,5.5165896320238223538,0.89244923174951684697,2.8645140012201486535,0.1863006137749534108,22,22,-0.014900442212820053101,0,0
1.6534302378016629137e-05,2.9999100827698734761,0.099162314164014456197,0.18631934169827801817,5.5165899659314368009,0.89244932019990885763,2.8645140128724695394,0.18630076208527690529,23,23,-0.014847921207547187805,0,0
1.653461518341637574e-05,2.9999086493300710643,0.099162402480579017738,0.18632022291602393094,5.5165902753696789418,0.89244940490804791633,2.864514001220131334,0.18630091755958683164,24,24,-0.01479540020227432251,0,0
1.6534946947537122242e-05,2.9999071752866717233,0.099162494197900519222,0.18632115752954747645,5.5165906344476542955,0.89244950012636725667,2.8645140128725539164,0.18630107774664964038,25,25,-0.01474288012832403183,0,0
1.6535298431587442574e-05,2.9999056252028433178,0.09916258973394379006,0.18632214768079025102,5.5165909707096210113,0.89244959204750462511,2.8645140012201095736,0.18630124587861834895,26,26,-0.014690359123051166534,0,0
1.6535670444464719404e-05,2.9999040272020085496,0.09916268912365011623,0.18632319564575086646,5.5165913582934287263,0.89244969493153814,2.8645140128726658268,0.18630141951742171247,27,27,-0.014637838117778301239,0,0
1.6536063845524230371e-05,2.9999023454227513596,0.099162792811261057935,0.18632430384225368014,5.5165917248400546669,0.8924497949972148847,2.8645140012200802637,0.18630160194131714646,28,28,-0.014585317112505435944,0,0
1.6536479545611481348e-05,2.9999006078307015599,0.09916290084149374795,0.18632547483282194123,5.5165921445247505517,0.89244990651454103592,2.8645140128728123763,0.18630179072933170104,29,29,-0.014532797038555145264,0,0
1.6536918510086341064e-05,2.9998987781007664388,0.099163013687284320974,0.18632671133315778511,5.5165925450939194974,0.89245001573075533052,2.8645140012200678292,0.18630198921007590229,30,30,-0.014480276033282279968,0,0
1.6537381760109396166e-05,2.9998968840018434001,0.099163131405540033692,0.18632801621572317452,5.5165930007692915993,0.89245013692822505735,2.8645140128729642548,0.18630219498390390709,31,31,-0.014427755028009414673,0,0
1.653787037594011116e-05,2.9998948887031371413,0.099163254500495234822,0.18632939251898311683,5.516593439412446287,0.89245025638528208134,2.8645140012200758228,0.18630241143434184137,32,32,-0.014375234022736549377,0,0
1.6538385498497412088e-05,2.9998928197347694002,0.099163383043851097143,0.18633084345174966145,5.5165939353011292923,0.8924503883992520592,2.8645140128731365614,0.18630263618764000833,33,33,-0.014322713948786258698,0,0
1.6538928332953484684e-05,2.9998906397149780467,0.09916351757394394062,0.1863323724032474038,5.5165944164224978152,0.89245051928235685779,2.8645140012200758228,0.1863028726871567009,34,34,-0.014270192943513393402,0,0
1.653950015059157174e-05,2.9998883758895131812,0.099163658180095329286,0.18633398294828310005,5.5165949571209313973,0.89245066334972322775,2.8645140128733093121,0.18630311858998954699,35,35,-0.014217671938240528107,0,0
1.6540102292719841308e-05,2.9998859902765242502,0.099163805437786065045,0.18633567885820001564,5.5165954855205265872,0.89245080695049638919,2.8645140012201242286,0.18630337740466143548,36,36,-0.014165151864290237427,0,0
1.6540736172852279692e-05,2.9998835097878764344,0.099163959457023803656,0.18633746410694371209,5.5165960760435028831,0.89245096442065596776,2.8645140128735482321,0.18630364682449765401,37,37,-0.014112630859017372131,0,0
1.6541403280970178589e-05,2.9998808957885034765,0.099164120853725001847,0.18633934288297990256,5.5165966569629665273,0.89245112214955435448,2.8645140012201775193,0.18630393042896173372,38,38,-0.014060109853744506836,0,0
1.6542105186055217601e-05,2.9998781748022955718,0.099164289761938279044,0.18634131959633534747,5.5165973027918457916,0.89245129449740989713,2.8645140128738217911,0.18630422595347403969,39,39,-0.014007588848471641541,0,0
1.6542843540729388756e-05,2.9998753074829300758,0.099164466841607540326,0.18634339889156262271,5.5165979419653137228,0.89245146789733442727,2.8645140012202396917,0.18630453705474611659,40,40,-0.013955068774521350861,0,0
1.6543620084172784449e-05,2.9998723199075323365,0.099164652254468327319,0.18634558565584416479,5.5165986491006364645,0.89245165673746040813,2.8645140128741086727,0.18630486151668188,41,41,-0.013902547769248485565,0,0
1.654443664717644374e-05,2.9998691719550980572,0.099164846708419601695,0.18634788503309679397,5.5165993528096564091,0.89245184749856176776,2.864514001220310746,0.18630520308012679664,42,42,-0.01385002676397562027,0,0
1.6545295155481139394e-05,2.999865889191449142,0.099165050396885515149,0.18635030243323666421,5.5166001278290277554,0.89245205460071008741,2.864514012874488369,0.18630555958447714282,43,43,-0.013797505758702754974,0,0
1.6546197635281448794e-05,2.9998624306519516836,0.099165264079986978341,0.1863528435475266809,5.5166009029625646676,0.89245226457655768559,2.8645140012204146629,0.18630593486221211363,44,44,-0.013744985684752464294,0,0
1.6547146217025967256e-05,2.9998588213203301045,0.099165487987229808398,0.18635551435911049123,5.5166017530831510385,0.89245249188255848516,2.8645140128749373432,0.18630632681590358901,45,45,-0.013692464679479598999,0,0
1.654814314141523981e-05,2.9998550193125979035,0.099165722935644295966,0.18635832115971684431,5.5166026072037048777,0.89245272310788281711,2.8645140012205589919,0.18630673937789254957,46,46,-0.013639943674206733704,0,0
1.6549190763708249499e-05,2.9998510489529195411,0.099165969195622954979,0.18636127056158233173,5.5166035403513866697,0.89245297275020973871,2.8645140128754649211,0.18630717052234282982,47,47,-0.013587422668933868408,0,0
1.6550291560261542226e-05,2.9998468673549889552,0.099166227646243165772,0.18636436951563883913,5.5166044817670973899,0.89245322746032240691,2.8645140012207606084,0.18630762429047212358,48,48,-0.013534902594983577728,0,0
1.655144813339171425e-05,2.9998424980983626753,0.099166498604059044597,0.18636762532495687594,5.5166055066519792405,0.89245350178243210149,2.8645140128760639975,0.1863080987372791042,49,49,-0.013482381589710712433,0,0
1.6552663218508158058e-05,2.9998378972033368228,0.099166783015837409176,0.18637104566455472976,5.5166065444958931607,0.89245378243454409617,2.8645140012210337233,0.18630859802275018255,50,50,-0.013429860584437847137,0,0
1.6553939689586677356e-05,2.9998330874113192657,0.099167081250093630507,0.1863746385965080743,5.5166076706954356723,0.89245408401321624225,2.8645140128767390131,0.18630912029288776433,51,51,-0.013377339579164981842,0,0
1.6555280566953889263e-05,2.9998280235494507728,0.099167394327467989212,0.18637841259153334339,5.5166088150125176526,0.89245439330985043558,2.864514001221410755,0.18630966983728530773,52,52,-0.013324819505214691162,0,0
1.6556689023432959949e-05,2.9998227274179978252,0.099167722674821282003,0.18638237654592351711,5.5166100530628057186,0.89245472497973199477,2.8645140128775485877,0.18631024490414291317,53,53,-0.013272298499941825867,0,0
1.6558168392843864867e-05,2.9998171525413650507,0.099168067393458750325,0.18638653980507330354,5.5166113149053170872,0.89245506589442213929,2.8645140012218628378,0.18631084992457416782,54,54,-0.013219777494668960571,0,0
1.6559722176888651919e-05,2.9998113196654507817,0.099168428975613356902,0.18639091218241671255,5.516612676401391191,0.8924554307750143245,2.8645140128785278044,0.18631148326127708326,55,55,-0.013167256489396095276,0,0
1.656135405443853769e-05,2.9998051808913825944,0.099168808610721484453,0.18639550398507778728,5.5166140679343627085,0.89245580658061651746,2.8645140012224565851,0.18631214949999289066,56,56,-0.013114736415445804596,0,0
1.6563067889233264147e-05,2.9997987557861769403,0.099169206864115899691,0.18640032603500245045,5.5166155656402109386,0.89245620810591363981,2.8645140128796842127,0.18631284713145426779,57,57,-0.013062215410172939301,0,0
1.6564867740033388212e-05,2.9997919948951365932,0.099169625021579110857,0.18640538969693629112,5.5166171002569548421,0.89245662240571976831,2.8645140012231919968,0.18631358091043739855,58,58,-0.013009694404900074005,0,0
1.6566757869216033097e-05,2.9997849164692422796,0.099170063730056531859,0.18641070690196095971,5.5166187482271418219,0.89245706435687743863,2.8645140128810671065,0.18631434947062081031,59,59,-0.01295717339962720871,0,0
1.6568742753878965078e-05,2.9997774693522201161,0.099170524380709654255,0.18641629017801944479,5.5166204406766343737,0.8924575211188615631,2.8645140012241183669,0.18631515775166543336,60,60,-0.01290465332567691803,0,0
1.6570827095423619333e-05,2.9997696703279754793,0.099171007711473621593,0.18642215267608730489,5.5166222543897358577,0.89245800766011407212,2.8645140128827177861,0.18631600454661970123,61,61,-0.012852132320404052734,0,0
1.6573015831706499078e-05,2.9997614663782945499,0.099171515228830567357,0.18642830820348588183,5.516624120916798546,0.89245851125463804276,2.8645140012252956474,0.18631689499746784122,62,62,-0.012799611315131187439,0,0
1.65753141477097917e-05,2.9997528726536759613,0.099172047772032381752,0.1864347712529394463,5.5166261174225201813,0.89245904697285982632,2.8645140128847059735,0.1863178280747197213,63,63,-0.012747090309858322144,0,0
1.6577727488845556023e-05,2.99974383409761991,0.099172606973816648801,0.1864415570389389154,5.5166281759218875891,0.89245960221416120728,2.8645140012267291674,0.18631880914186879639,64,64,-0.012694570235908031464,0,0
1.6580261572824571577e-05,2.9997343640437463819,0.099173193786148444717,0.18644868152995866528,5.5166303740030855352,0.89246019216243566152,2.8645140128870791862,0.18631983736683563335,65,65,-0.012642049230635166168,0,0
1.6582922404229659045e-05,2.9997244052032532302,0.099173809980052360369,0.18645616148815641333,5.5166326441896407218,0.89246080435436792033,2.8645140012284922015,0.18632091835574160488,66,66,-0.012589528225362300873,0,0
1.6585716287704884488e-05,2.9997139688908855959,0.099174456632756549657,0.18646401450504740405,5.5166350645405843878,0.89246145409995902842,2.8645140128899244658,0.18632205149588898507,67,67,-0.012537008151412010193,0,0
1.6588649843926291035e-05,2.9997029953717717632,0.099175135666832975323,0.18647225904485106862,5.5166375681365691364,0.89246212908634459104,2.8645140012306913313,0.18632324265929559037,68,68,-0.012484487146139144897,0,0
1.6591730024246136303e-05,2.9996914937194572026,0.099175848298588692442,0.18648091448394626957,5.5166402335593396344,0.89246284476354276194,2.8645140128933332946,0.1863244914768411864,69,69,-0.012431966140866279602,0,0
1.6594964128202547427e-05,2.999679401517453492,0.099176596616760079317,0.18649000115820149603,5.5166429945005432955,0.892463588983639311,2.8645140012334242563,0.18632580411207763649,70,70,-0.012379445135593414307,0,0
1.6598359819767330762e-05,2.9996667253531326125,0.099177381991959370766,0.1864995404065618867,5.5166459301216130839,0.89246437735198702601,2.8645140128973904936,0.18632718046613383489,71,71,-0.012326925061643123627,0,0
1.6601925146550553392e-05,2.9996533998692096468,0.099178206695179016439,0.18650955462272778007,5.5166489747846050307,0.89246519790161105146,2.864514001236792673,0.18632862702231556273,72,72,-0.012274404056370258331,0,0
1.6605668557815680308e-05,2.9996394288968120101,0.099179072268127874135,0.18652006730325290662,5.5166522082936095828,0.89246606641008274785,2.8645140129022954589,0.18633014398140820833,73,73,-0.012221883051097393036,0,0
1.6609598925551155433e-05,2.9996247438525749374,0.099179981181769030774,0.18653110310396561755,5.5166555657460225603,0.89246697110893491445,2.864514001240959562,0.18633173817755221968,74,74,-0.01216936204582452774,0,0
1.6613725564433413044e-05,2.9996093455138037598,0.099180935167419326248,0.18654268789298761311,5.5166591276582934711,0.89246792796659790703,2.8645140129082022895,0.18633341014359883214,75,75,-0.012116841971874237061,0,0
1.6618058254955112393e-05,2.999593161756783477,0.099181936915536422772,0.18655484881232259342,5.5166628299349440567,0.89246892543248668161,2.8645140012461234313,0.18633516709876965511,76,76,-0.012064320966601371765,0,0
1.6622607265535082873e-05,2.9995761899772488412,0.099182988367437330268,0.18656761433623617052,5.5166667538810818527,0.89246997968638752674,2.8645140129152641961,0.18633700994369881143,77,77,-0.01201179996132850647,0,0
1.6627383377912320958e-05,2.9995583541650061576,0.099184092454590949695,0.18658101433846899231,5.5166708362878527083,0.89247107941698555766,2.8645140012524259454,0.18633894632041675399,78,78,-0.011959278956055641174,0,0
1.6632397911622257437e-05,2.9995396479730640493,0.099185251350795783365,0.18659508015645040468,5.516675159333251699,0.89247224103802424988,2.864514012923716102,0.1863409775367109722,79,79,-0.011906758882105350494,0,0
1.6637662751886994318e-05,2.9995199911235581602,0.099186468252237411369,0.18660984466462521292,5.5166796607824553078,0.89247345350100237837,2.8645140012601815194,0.18634311169899048233,80,80,-0.011854237876832485199,0,0
1.6643190376699806745e-05,2.9994993731289576466,0.099187745589970316429,0.18662534234500727237,5.5166844237790000349,0.89247473347851680181,2.8645140129339190516,0.18634535056558668153,81,81,-0.011801716871559619904,0,0
1.6648993887465604401e-05,2.999477709023909977,0.099189086851017738145,0.18664160936714194183,5.5166893871583964071,0.89247607021082475676,2.8645140012697187792,0.18634770275309051057,82,82,-0.011749195866286754608,0,0
1.6655087038960293737e-05,2.9994549837420518834,0.099190494751003666085,0.18665868366553858837,5.5166946351321595188,0.89247748065684728846,2.8645140129462514089,0.18635017051820229605,83,83,-0.011696675792336463928,0,0
1.6661484273001435374e-05,2.9994311071683008585,0.099191973096564578505,0.18667660502682403845,5.5167001077120341179,0.89247895437416291387,2.8645140012814085395,0.18635276303815742627,84,84,-0.011644154787063598633,0,0
1.666820075157630915e-05,2.9994060591745244082,0.099193524918008688096,0.18669541517462559521,5.5167058902905479201,0.8924805086383151842,2.8645140129611221802,0.18635548312074901034,85,85,-0.011591633781790733337,0,0
1.6675252393851351787e-05,2.999379743986839042,0.099195154373297067529,0.18671515786450318397,5.5167119241724957845,0.89248213335568360449,2.864514001295712653,0.18635834055946037813,86,86,-0.011539112776517868042,0,0
1.668265591279271157e-05,2.9993521358833961088,0.099196864840614379366,0.18673587897688581627,5.5167182960559282279,0.89248384615181974855,2.8645140129790904737,0.18636133877128843728,87,87,-0.011486592702567577362,0,0
1.6690428855854597443e-05,2.9993231328710292516,0.0991986608641837464,0.186757626620401046,5.5167249486671652292,0.89248563731657826192,2.8645140013131848988,0.18636448822722836982,88,88,-0.011434071697294712067,0,0
1.6698589645449181688e-05,2.9992927030482494644,0.099200546206656678438,0.18678045123349740209,5.5167319701473145344,0.8924875248623442836,2.8645140130007891166,0.18636779301752756655,89,89,-0.011381550692021846771,0,0
1.6707157623688570882e-05,2.9992607375852355922,0.0992025258370306251,0.18680440569681741603,5.5167393047859567545,0.89248949950065969983,2.8645140013345482544,0.18637126435821690928,90,90,-0.011329029686748981476,0,0
