"epsilon","mach_number","pressure","rad_temp","rho","rhoE","rhou","temperature","GlobalNodeId","PedigreeNodeId","Points:0","Points:1","Points:2"
1.6531175237635635619e-05,2.9999332958553091011,0.099160876080746321315,0.18631053140722345085,5.5165846221723091602,0.89244788120389617614,2.864514008485420149,0.18629824075430423402,1,1,-0.016003377735614776611,0,0
1.6531187126388313256e-05,2.9999320673257607872,0.099160952135198862645,0.18631056490452777008,5.5165848982795147037,0.89244795656816477969,2.864514005607059044,0.18629837431710516427,2,2,-0.015933349728584289551,0,0
1.6531220252612546692e-05,2.999930849593590132,0.099161027686824484983,0.18631065823964135242,5.5165851845114470819,0.89244803280246298716,2.8645140084854263662,0.18629850659328969775,3,3,-0.015863323584198951721,0,0
1.6531274552482451786e-05,2.9999296287185783783,0.099161103255534746581,0.18631081123246173714,5.5165854588695726335,0.89244810767391669071,2.8645140056070510504,0.18629863930254433879,4,4,-0.015793295577168464661,0,0
1.6531350065952806443e-05,2.99992840668508709,0.099161179062444995691,0.18631102399512225465,5.5165857461008425133,0.89244818415644078247,2.8645140084854459062,0.18629877202456862628,5,5,-0.0157232675701379776,0,0
1.6531446936467752588e-05,2.9999271695880342925,0.099161255625233826749,0.18631129693116654789,5.5165860241984949752,0.89244826001487020939,2.8645140056070439449,0.18629890647513225321,6,6,-0.01565323956310749054,0,0
1.6531565409942140799e-05,2.9999259195306131609,0.099161333157601783128,0.18631163073266968078,5.5165863178824521285,0.89244833821569802268,2.8645140084854663343,0.18629904222091542287,7,7,-0.015583212487399578094,0,0
1.6531705835494535671e-05,2.9999246425248173864,0.099161412182311850505,0.1863120263822901912,5.5165866051648322355,0.89244841652878026395,2.8645140056070297341,0.18629918098660300241,8,8,-0.015513184480369091034,0,0
1.653186866543156943e-05,2.9999233406770913213,0.099161492912815063505,0.18631248515320855685,5.5165869107652483194,0.89244849792036606839,2.8645140084855253981,0.18629932233841534073,9,9,-0.015443156473338603973,0,0
1.6532054456985812981e-05,2.9999219998008022081,0.099161575884126509917,0.18631300861400129643,5.5165872127410313652,0.89244858017247497006,2.8645140056070386159,0.18629946802252941862,10,10,-0.015373129397630691528,0,0
1.6532263873293675442e-05,2.9999206218912779498,0.099161661316536670041,0.18631359863136928712,5.5165875358378384519,0.89244866625821117623,2.8645140084855680307,0.18629961761713398349,11,11,-0.015303101390600204468,0,0
1.653249768613863216e-05,2.9999191924474315485,0.0991617497644922824,0.1863142573778339417,5.5165878581850149587,0.89244875397894896096,2.8645140056070359513,0.18629977290248153632,12,12,-0.015233073383569717407,0,0
1.6532756777932800684e-05,2.9999177132378651578,0.099161841462286307025,0.18631498733728182882,5.5165882045808247724,0.89244884632180077055,2.8645140084856262064,0.18629993348128956465,13,13,-0.015163046307861804962,0,0
1.6533042145485427624e-05,2.9999161693291229724,0.099161936991102830885,0.18631579131553732687,5.5165885532535643421,0.89244894111479522447,2.8645140056070448331,0.18630010118070200464,14,14,-0.015093018300831317902,0,0
1.653335490301770591e-05,2.9999145621440690412,0.099162036606612324885,0.186316672448804177,5.5165889290816663149,0.89244904136643488091,2.8645140084857292351,0.18630027564088963432,15,15,-0.015022990293800830841,0,0
1.6533696286995900747e-05,2.9999128761944726662,0.099162140924318756263,0.18631763421722205565,5.5165893104202829988,0.89244914493896843055,2.8645140056070816925,0.18630045874919107241,16,16,-0.014952963218092918396,0,0
1.6534067660228512353e-05,2.9999111124328412536,0.099162250228990792,0.18631868045634025766,5.5165897222567332747,0.89244925487000670294,2.8645140084858073948,0.18630065019676564364,17,17,-0.014882935211062431335,0,0
1.6534470517823150358e-05,2.9999092546867842657,0.099162365178471600924,0.18631981537382058534,5.5165901431031052482,0.89244936906406202581,2.8645140056071380918,0.1863008519451967715,18,18,-0.014812907204031944275,0,0
1.6534906492435295434e-05,2.9999073033060885685,0.099162486094824794924,0.18632104356413320412,5.5165905980856830837,0.8924494905960197455,2.8645140084859077589,0.18630106375101559979,19,19,-0.01474288012832403183,0,0
1.6535377361428600835e-05,2.9999052412957016855,0.099162613686814088387,0.18632237002862475639,5.5165910659054544496,0.8924496174212410704,2.8645140056072193602,0.18630128766509299054,20,20,-0.014672852121293544769,0,0
1.6535885053365458541e-05,2.9999030682599325814,0.099162748322642338406,0.18632380019368441348,5.5165915718605393891,0.8924497526607320097,2.8645140084860534202,0.18630152352483758671,21,21,-0.014602824114263057709,0,0
1.6536431656472060179e-05,2.9999007662309002953,0.099162890771294420755,0.18632533993445515863,5.5165920948752775743,0.89244989432998100831,2.864514005607333047,0.18630177348671725368,22,22,-0.014532797038555145264,0,0
1.6537019426483348525e-05,2.9998983339116680469,0.099163041456764286496,0.18632699559677878831,5.5165926604555872714,0.89245004560578145014,2.8645140084862581453,0.1863020374859362116,23,23,-0.014462769031524658203,0,0
1.6537650796537263568e-05,2.9998957521973044216,0.099163201218429058992,0.18632877402489159135,5.516593247786719445,0.89245020457389512281,2.8645140056074782642,0.18630231780239955852,24,24,-0.014392741024494171143,0,0
1.6538328386510763371e-05,2.9998930187181684914,0.099163370546696716357,0.18633068258752225055,5.5165938826219642621,0.89245037447753361448,2.8645140084864726404,0.1863026144877275303,25,25,-0.014322713948786258698,0,0
1.6539055014492732876e-05,2.9998901130505886137,0.099163550362593083642,0.18633272920998045219,5.516594544449439752,0.89245055348398727446,2.8645140056076705548,0.18630292996499281388,26,26,-0.014252685941755771637,0,0
1.6539833707773931464e-05,2.999887031562274764,0.099163741234706004324,0.18633492240485255431,5.516595259313287869,0.89245074491463582955,2.8645140084867568575,0.18630326442286723743,27,27,-0.014182657934725284576,0,0
1.6540667716075590994e-05,2.9998837523089147972,0.099163944178216459346,0.18633727130896554636,5.5165960070508957003,0.89245094703078464704,2.8645140056079045898,0.18630362044951978562,28,28,-0.014112630859017372131,0,0
1.6541560524384871971e-05,2.9998802701833091611,0.099164159853045538706,0.18633978571920153944,5.5165968140464318736,0.89245116324515572082,2.8645140084871481001,0.18630399839372349668,29,29,-0.014042602851986885071,0,0
1.6542515868146457053e-05,2.9998765614950673175,0.099164389382492029723,0.18634247613490018125,5.5165976605379745124,0.89245139192698685893,2.8645140056082212254,0.18630440103323822609,30,30,-0.01397257484495639801,0,0
1.6543537748167176573e-05,2.9998726194241305265,0.09916463353255648705,0.18634535379939823341,5.5165985733048321649,0.89245163659511117515,2.8645140084876579145,0.18630482890277960673,31,31,-0.013902547769248485565,0,0
1.6544630448011510623e-05,2.9998684182807973109,0.099164893550343316542,0.1863484307485215874,5.5165995330438173383,0.89245189574235805896,2.8645140056086613178,0.18630528499721010771,32,32,-0.013832519762217998505,0,0
1.6545798551234606506e-05,2.9998639492645544635,0.099165170324512164068,0.18635171985854909193,5.5166005669909576881,0.89245217301023516132,2.8645140084882574349,0.1863057700662547056,33,33,-0.013762491755187511444,0,0
1.6547046961260380174e-05,2.9998591844010857876,0.099165465243655354088,0.1863552349015440146,5.5166016563677073847,0.89245246703286096324,2.8645140056092301961,0.18630628735287149689,34,34,-0.013692464679479598999,0,0
1.6548380921241989227e-05,2.9998541126075126684,0.09916577933779865961,0.18635899060054431087,5.5166028289363033821,0.89245278159310303945,2.8645140084890803323,0.18630683785459073443,35,35,-0.013622436672449111938,0,0
1.654980603674346772e-05,2.9998487033027774196,0.099166114156981857719,0.18636300269259156726,5.5166040665166420354,0.89245311548628736276,2.8645140056100344417,0.18630742509747003077,36,36,-0.013552409596741199493,0,0
1.6551328298571644945e-05,2.9998429427803090519,0.099166470893751176852,0.18636728799206456197,5.5166053974757751632,0.89245347265779040313,2.8645140084900955202,0.18630805036393005558,37,37,-0.013482381589710712433,0,0
1.6552954108629877974e-05,2.9998367974878363817,0.099166851282186135874,0.18637186446238462878,5.5166068043162308498,0.89245385208674088418,2.8645140056110380833,0.18630871750272651188,38,38,-0.013412353582680225372,0,0
1.6554690306115987889e-05,2.9998302507084746438,0.09916725670131736059,0.1863767512885362021,5.5166083160988552692,0.89245425790497434626,2.8645140084913651712,0.1863094281231825744,39,39,-0.013342326506972312927,0,0
1.6556544196970434237e-05,2.9998232655057832652,0.099167689094861816157,0.18638196895856140589,5.5166099161038788523,0.8924546893009914772,2.8645140056123765682,0.18631018644162844478,40,40,-0.013272298499941825867,0,0
1.6558523583892018489e-05,2.9998158217141561721,0.099168150055512688246,0.18638753934645260757,5.5166116341868276507,0.89245515062024893815,2.864514008493061592,0.18631099444193729986,41,41,-0.013202270492911338806,0,0
1.6560636799863742865e-05,2.9998078785446868899,0.099168641765654264031,0.18639348580469747296,5.5166134545131537692,0.89245564128959142813,2.864514005614092973,0.18631185675891645537,42,42,-0.013132243417203426361,0,0
1.6562892742502784773e-05,2.9997994118852706613,0.099169166062514052529,0.1863998332588853446,5.5166154078483797818,0.89245616589900855775,2.864514008495231856,0.18631277580508665004,43,43,-0.013062215410172939301,0,0
1.6565300912216207227e-05,2.9997903765629101436,0.099169725400106142899,0.18640660831272920506,5.5166174793652080766,0.89245672414658616667,2.864514005616333403,0.18631375669153144026,44,44,-0.01299218740314245224,0,0
1.6567871451475139004e-05,2.9997807439537007568,0.099170321895254223699,0.18641383935590061238,5.5166197008696462589,0.89245732090191198793,2.8645140084980504902,0.18631480232087410664,45,45,-0.012922160327434539795,0,0
1.6570615188230725676e-05,2.9997704638966964374,0.099170958311053020173,0.18642155668313711847,5.5166220586803715875,0.89245795617169876301,2.8645140056192439637,0.18631591834613975278,46,46,-0.012852132320404052734,0,0
1.6573543680785815188e-05,2.9997595026136107954,0.099171637083788705125,0.18642979261701284055,5.5166245857924680607,0.89245863514501266867,2.8645140085016658205,0.1863171082299209802,47,47,-0.012782104313373565674,0,0
1.6576669267190310985e-05,2.9997478042692988787,0.09917236132821072303,0.18643858164294097035,5.516627269828482838,0.8924593581797093389,2.8645140056230626868,0.1863183782418246226,48,48,-0.012712077237665653229,0,0
1.6580005116478255977e-05,2.9997353292006461167,0.099173133845393224295,0.18644796054879711478,5.516630145140990038,0.89246013082963737695,2.8645140085063163227,0.18631973248386227149,49,49,-0.012642049230635166168,0,0
1.6583565284862688432e-05,2.9997220151180692405,0.099173958150162777603,0.18645796857784796563,5.5166332008362886086,0.89246095385217316664,2.8645140056280373742,0.18632117792710323201,50,50,-0.012572021223604679108,0,0
1.6587364774213583709e-05,2.999707815643001485,0.099174837459941017626,0.18646864758737580203,5.516636472816139225,0.89246183321749172901,2.8645140085123155238,0.18632271940334893534,51,51,-0.012501994147896766663,0,0
1.6591419595986896842e-05,2.9996926611441159238,0.099175775744714589344,0.18648004222180508682,5.516639951874990011,0.89246277013749875096,2.864514005634497984,0.18632436468169180643,52,52,-0.012431966140866279602,0,0
1.6595746837941088918e-05,2.999676497582580037,0.099176776696924831556,0.18649220009272848841,5.5166436756821708443,0.89246377105737328961,2.8645140085200799795,0.18632611942654891957,53,53,-0.012361938133835792542,0,0
1.6600364736865459622e-05,2.9996592469763179167,0.099177844804379952648,0.18650517197476501607,5.516647636952686895,0.89246483770611817476,2.8645140056429450048,0.18632799231488181291,54,54,-0.012291911058127880096,0,0
1.6605292754671979868e-05,2.9996408465514110553,0.099178984301311640115,0.18651901200966011785,5.5166518753717594947,0.89246597707067176763,2.8645140085301235011,0.18632998996074426334,55,55,-0.012221883051097393036,0,0
1.6610551661136224635e-05,2.9996212088272851126,0.099180200264662565779,0.18653377792769093579,5.5166563858396537867,0.89246719146836506198,2.8645140056539108997,0.18633212207396659954,56,56,-0.012151855044066905975,0,0
1.6616163620659384656e-05,2.9996002610720844395,0.099181497546459912451,0.18654953127880419261,5.5166612103405130441,0.89246848850390059216,2.8645140085431388677,0.18633439635142637347,57,57,-0.01208182796835899353,0,0
1.6622152286403767683e-05,2.9995779050013040568,0.099182881893927099526,0.18656633768268496287,5.5166663462605560753,0.8924698711639484916,2.8645140056681572815,0.18633682367806947422,58,58,-0.01201179996132850647,0,0
1.6628542899199676993e-05,2.9995540565339089412,0.099184358863407512397,0.18658426709020470291,5.5166718382051511682,0.89247134775751291169,2.8645140085599654078,0.18633941298520009799,59,59,-0.011941771954298019409,0,0
1.6635362394649292006e-05,2.9995286050963190227,0.099185934964777788814,0.1866033940655857648,5.5166776863890438776,0.89247292203283479228,2.8645140056866513767,0.18634217649478720946,60,60,-0.011871744878590106964,0,0
1.6642639515857714027e-05,2.9995014536757915735,0.099187616557173410858,0.18662379808175405538,5.5166839384054426887,0.89247460310170112496,2.8645140085817057951,0.18634512454511020785,61,61,-0.011801716871559619904,0,0
1.6650404935297300596e-05,2.999472477720080299,0.099189411018283504817,0.18664556383835817499,5.5166905976878037876,0.89247639557892954887,2.864514005710652178,0.18634827087946376212,62,62,-0.011731688864529132843,0,0
1.6658691383274919825e-05,2.9994415654844077679,0.099191325622144027596,0.18666878159495065015,5.5166977152346046154,0.89247830949120898758,2.8645140086098632715,0.18635162743952318753,63,63,-0.011661661788821220398,0,0
1.6667533786597101935e-05,2.9994085765159996804,0.09919336873395910581,0.18669354752895025995,5.5167052981419120172,0.89248035043943541034,2.8645140057418330137,0.18635520969969388005,64,64,-0.011591633781790733337,0,0
1.6676969414950403963e-05,2.9993733822900967567,0.099195548670297117866,0.1867199641109038577,5.5167134012887606431,0.89248252949285244995,2.8645140086462781426,0.18635903142864737592,65,65,-0.011521606706082820892,0,0
1.6687038038690180005e-05,2.9993358242673640035,0.09919787492015499919,0.18674814050680327293,5.5167220359397690643,0.89248485337452132526,2.8645140057823432755,0.18636311007069619738,66,66,-0.011451578699052333832,0,0
1.6697782095612234129e-05,2.9992957548135881218,0.099200356987939025677,0.18677819299999351421,5.5167312613952850242,0.89248733434153249,2.864514008693447078,0.18636746147606178536,67,67,-0.011381550692021846771,0,0
1.6709246870509392082e-05,2.9992529948168660248,0.099203005641568503536,0.18681024544255664388,5.5167410936642626851,0.8924899803940186116,2.8645140058349571888,0.18637210533077400165,68,68,-0.011311523616313934326,0,0
1.6721480685155336565e-05,2.999207374883953392,0.099205831738734290282,0.1868444297287146505,5.5167515970844318574,0.89249280514236095652,2.8645140087545040153,0.18637705985640276585,69,69,-0.011241495609283447266,0,0
1.6734535102638722236e-05,2.9991586925033573152,0.099208847502885971759,0.18688088630025193049,5.5167627930647187284,0.89249581804013422559,2.8645140059032407898,0.18638234729010338953,70,70,-0.011171467602252960205,0,0
1.6748465143769970001e-05,2.999106753509871659,0.099212065333356400099,0.18691976467648999116,5.5167747516816296738,0.89249903423934906499,2.8645140088335403483,0.18638798855468735605,71,71,-0.01110144052654504776,0,0
1.6763329519618458684e-05,2.9990513287779072549,0.099215499110194879662,0.18696122401891018816,5.5167875004906310465,0.89250246484781958767,2.8645140059918525743,0.18639400879065412542,72,72,-0.011031412519514560699,0,0
1.6779190877996503822e-05,2.9989921959447523037,0.099219162988819595284,0.18700543372292213751,5.5168011161055368063,0.89250612677360952052,2.8645140089358753777,0.18640043199759137593,73,73,-0.010961384512484073639,0,0
1.6796116068098091768e-05,2.9989290956164436075,0.09922307273478814249,0.1870525740469364262,5.5168156330784654529,0.89251003300737274948,2.8645140061068170567,0.18640728662026950779,74,74,-0.010891357436776161194,0,0
1.6814176421218608834e-05,2.9988617733385862785,0.099227244503762357386,0.18710283677116892886,5.5168311354701291549,0.89251420245737533854,2.8645140090684626522,0.18641460016255045895,75,75,-0.010821329429745674133,0,0
1.683344805193135463e-05,2.9987899352953801824,0.099231696207411720922,0.18715642589635433923,5.5168476657969565125,0.89251865025733079229,2.8645140062560234817,0.18642240482985247829,76,76,-0.010751301422715187073,0,0
1.6854012177775032111e-05,2.9987132905151607787,0.099236446279608106491,0.18721355837467595906,5.516865316602219238,0.89252339759367049776,2.8645140092402430199,0.18643073211692282043,77,77,-0.010681274347007274628,0,0
1.6875955462015855064e-05,2.9986315060404895583,0.099241515074829006471,0.18727446488304941297,5.5168841394686971569,0.89252846203944014025,2.8645140064495473453,0.18643961850931051183,78,78,-0.010611246339976787567,0,0
1.6899370377686764091e-05,2.9985442493539844477,0.099246923621625474099,0.18733939063087956534,5.516904236601928524,0.89253386737572903975,2.8645140094627796756,0.18644910004654227653,79,79,-0.010541218332946300507,0,0
1.6924355597678055678e-05,2.9984511429947495742,0.099252695055055892293,0.18740859621231067966,5.5169256699057260818,0.89253963395217272847,2.8645140067005736562,0.18645921808558460486,80,80,-0.010471191257238388062,0,0
1.6951016409253449744e-05,2.9983518071879271538,0.099258853358644399956,0.18748235849481340032,5.5169485525909616186,0.89254578850481758323,2.8645140097510579658,0.18647001384121128509,81,81,-0.010401163250207901001,0,0
1.6979465158002273275e-05,2.9982458138800494041,0.09926542483256337035,0.1875609715539092448,5.5169729583116193794,0.89255235454388093252,2.8645140070261319032,0.1864815342147750632,82,82,-0.01033113524317741394,0,0
1.7009821719799686219e-05,2.9981327295530486587,0.099272436825491500167,0.18764474764548885743,5.516999012813315062,0.89255936217053810644,2.8645140101245343267,0.18649382631387917408,83,83,-0.010261108167469501495,0,0
1.7042214006051216115e-05,2.998012068647888384,0.099279919240493660904,0.18773401822517710169,5.5170268031278126841,0.89256683849275086917,2.8645140074484025661,0.18650694335020412407,84,84,-0.010191080160439014435,0,0
1.7076778501021345618e-05,2.9978833365418715573,0.099287903258348991775,0.18782913500567233189,5.5170564692766346226,0.89257481744373157184,2.8645140106084454601,0.18652093914084763582,85,85,-0.010121052153408527374,0,0
1.7113660836821028996e-05,2.9977459823255889759,0.099296422883382695623,0.18793047106100699284,5.5170881135228997394,0.89258333022686253688,2.8645140079959321433,0.18653587407949373533,86,86,-0.010051025077700614929,0,0
1.7153016405115604787e-05,2.9975994419194886831,0.099305513660074506976,0.1880384219679553659,5.5171218921478262232,0.89259241513900833276,2.8645140112354470219,0.18655180962214118479,87,87,-0.0099809970706701278687,0,0
1.7195011011464015591e-05,2.9974430901657735937,0.099315214261329970435,0.18815340699283583659,5.5171579247560975645,0.89260210804544870555,2.8645140087058931222,0.18656881433642527601,88,88,-0.0099109690636396408081,0,0
1.7239821571650889014e-05,2.9972762840568227816,0.099325565200485882444,0.18827587031302589482,5.5171963861475967761,0.89261245221186391596,2.8645140120478567169,0.18658695837486069524,89,89,-0.009840941987931728363,0,0
1.7287636856300872193e-05,2.997098314099211791,0.099336610464836980205,0.18840628228050942949,5.5172374156721559757,0.89262348881030839642,2.8645140096263621565,0.18660631960775062033,90,90,-0.0097709139809012413025,0,0
