"epsilon","mach_number","pressure","rad_temp","rho","rhoE","rhou","temperature","GlobalNodeId","PedigreeNodeId","Points:0","Points:1","Points:2"
1.6531161640527549891e-05,2.9999332837887484615,0.099160876037446804565,0.18631049309649874712,5.5165845903868753197,0.89244787480423526382,2.8645139880334316018,0.18629824174636783196,1,1,-0.016003377735614776611,0,0
1.653116296455174299e-05,2.9999329402964933777,0.099160898830269142423,0.18631049682702291448,5.5165847321567458295,0.892447909625901592,2.8645140260587518277,0.18629827978067314831,2,2,-0.015982368960976600647,0,0
1.653116620225426173e-05,2.9999325489611483597,0.099160921580478803006,0.18631050594945916532,5.5165847593044796682,0.89244792034649023105,2.8645139880333845284,0.18629832160577514122,3,3,-0.015961362048983573914,0,0
1.6531171348837196401e-05,2.9999322073384835363,0.09916094425640789578,0.1863105204502866763,5.5165849006457055026,0.89244795505065399599,2.8645140260588006775,0.18629835943493999739,4,4,-0.015940353274345397949,0,0
1.6531178400563051393e-05,2.9999318174654789892,0.099160966914961318208,0.18631054031897104073,5.5165849274580667227,0.89244796567892181738,2.864513988033337899,0.18629840109916714908,5,5,-0.015919344499707221985,0,0
1.653118735434249426e-05,2.9999314770562488519,0.099160989514669589662,0.18631056554680275328,5.5165850685214437021,0.89244800030625892617,2.8645140260588433101,0.18629843879451221667,6,6,-0.015898337587714195251,0,0
1.6531198208138580169e-05,2.9999310879924481199,0.099161012122051056528,0.18631059612803607672,5.5165850951485921883,0.89244801088269287703,2.8645139880332921578,0.1862984803688533253,7,7,-0.015877328813076019287,0,0
1.6531210960554358668e-05,2.9999307481466956915,0.099161034685824739343,0.18631063205872708255,5.516585236083543009,0.89244804547349076973,2.8645140260588921599,0.18629851800102029125,8,8,-0.015856320038437843323,0,0
1.6531225611238795585e-05,2.9999303592446824318,0.099161057282162151649,0.1863106733378774027,5.5165852626742779563,0.89244805603821886208,2.8645139880332450844,0.1862985595558404317,9,9,-0.015835311263799667358,0,0
1.6531242160474247661e-05,2.9999300193175426621,0.099161079849970315547,0.18631071996627199261,5.5165854036290440376,0.89244809063244778802,2.8645140260589410097,0.18629859719491481673,10,10,-0.015814304351806640625,0,0
1.6531260609584017527e-05,2.9999296299343973793,0.09916110247511113196,0.18631077194762724059,5.5165854303311414597,0.89244810122531670338,2.86451398803319357,0.18629863880008690202,11,11,-0.015793295577168464661,0,0
1.6531280960519706365e-05,2.9999292892848692382,0.099161125086681692342,0.18631082928742842553,5.5165855714531009113,0.89244813586270488326,2.8645140260589956327,0.18629867651573034371,12,12,-0.015772286802530288696,0,0
1.6531303216270415516e-05,2.9999288987809942242,0.099161147780265690432,0.18631089199408268353,5.5165855984135756529,0.89244814652335124894,2.8645139880331416116,0.18629871824076257858,13,13,-0.015751278027892112732,0,0
1.6531327380449936513e-05,2.9999285567708611211,0.099161170475152202175,0.18631096007775571621,5.5165857398494413388,0.89244818124345082211,2.8645140260590502557,0.18629875610233165295,14,14,-0.015730271115899085999,0,0
1.6531353457707602709e-05,2.9999281645088418102,0.099161193276682227382,0.18631103355152958678,5.5165857672148135293,0.89244819201137470799,2.8645139880330865445,0.18629879801649187887,15,15,-0.015709262341260910034,0,0
1.6531381453315323451e-05,2.9999278205015507126,0.099161216094333509696,0.18631111243023892876,5.5165859091109181733,0.89244822685363267567,2.8645140260591044346,0.18629883609315908699,16,16,-0.01568825356662273407,0,0
1.6531411373580068796e-05,2.9999274258449708519,0.099161239043248985969,0.18631119673163321071,5.5165859370275018847,0.8924482377682697587,2.864513988033034142,0.18629887826560279085,17,17,-0.015667244791984558105,0,0
1.6531443225430734269e-05,2.999927079204405711,0.099161262023084839612,0.18631128647521280617,5.5165860795300689645,0.89244827277210059258,2.8645140260591568371,0.18629891662648986883,18,18,-0.015646237879991531372,0,0
1.6531477016832251889e-05,2.9999266815168308398,0.099161285158824580277,0.18631138168339542172,5.5165861081441684988,0.89244828387288532845,2.8645139880329790749,0.18629895912637178812,19,19,-0.015625229105353355408,0,0
1.6531512756372288909e-05,2.999926331606218799,0.0991613083403041079,0.18631148238035188935,5.5165862513996017924,0.89244831907774402335,2.8645140260592132364,0.18629899784066819568,20,20,-0.015604220330715179443,0,0
1.6531550453677008855e-05,2.9999259302500078661,0.09916133170237990957,0.18631158859317739629,5.5165862808577710297,0.89244833040418125591,2.8645139880329182347,0.18629904073727168723,21,21,-0.015583212487399578094,0,0
1.6531590118997550046e-05,2.9999255764308543348,0.099161355125067240923,0.18631170035072627811,5.516586425012881989,0.89244836584962683457,2.8645140260592727444,0.18629907987435040395,22,22,-0.01556220371276140213,0,0
1.6531631763627450201e-05,2.9999251707659966293,0.099161378753136006359,0.18631181768478824456,5.5165864554622716653,0.89244837744136518154,2.8645139880328622795,0.18629912323721134482,23,23,-0.015541195869445800781,0,0
1.6531675399488931832e-05,2.9999248123969350921,0.099161402456771505221,0.18631194062892253438,5.5165866006644854735,0.89244841316713141577,2.8645140260593340287,0.18629916286675568537,24,24,-0.015520187094807624817,0,0
1.6531721039551953165e-05,2.9999244017800679174,0.099161426390696583155,0.18631206921963858192,5.5165866322529950594,0.8924484250640272176,2.8645139880328076565,0.18629920676577238492,25,25,-0.015499179251492023468,0,0
1.6531768697420320729e-05,2.9999240382157084106,0.099161450415268040381,0.18631220349522989443,5.5165867786506925796,0.89244846111009201728,2.8645140260593957571,0.18629924695789823463,26,26,-0.015478170476853847504,0,0
1.653181838775235303e-05,2.9999236219988794083,0.099161474695195178652,0.18631234349695910413,5.5165868115272909122,0.89244847335228094654,2.8645139880327539217,0.18629929146346357882,27,27,-0.015457162633538246155,0,0
1.6531870125846837287e-05,2.9999232525888213097,0.09916149908099947119,0.18631248926789142906,5.5165869592699721125,0.89244850975893208478,2.8645140260594521564,0.18629933228882972207,28,28,-0.01543615385890007019,0,0
1.6531923928065288916e-05,2.999922830118421313,0.099161523747423610531,0.18631264085408430486,5.5165869935849425332,0.89244852238689897916,2.8645139880326992987,0.18629937747194807995,29,29,-0.015415146015584468842,0,0
1.6531979811417759187e-05,2.9999224542059912402,0.09916154853514458356,0.18631279830342031834,5.5165871428235799812,0.89244855919480914341,2.8645140260595081116,0.18629941900189059267,30,30,-0.015394137240946292877,0,0
1.65320377939867244e-05,2.9999220248216671436,0.09916157362897662364,0.18631296166680133553,5.5165871787287246164,0.89244857224945195462,2.8645139880326380144,0.18629946493429655474,31,31,-0.015373129397630691528,0,0
1.6532097894512690257e-05,2.9999216417429210857,0.099161598859747290824,0.18631313099698107449,5.5165873296159677608,0.89244860949974458286,2.8645140260595631787,0.18629950724093866099,32,32,-0.015352120622992515564,0,0
1.6532160132819741216e-05,2.9999212047764083344,0.09916162442238694863,0.18631330634976386862,5.5165873672649432535,0.89244862302245075991,2.8645139880325807269,0.18629955399522263315,33,33,-0.015331112779676914215,0,0
1.6532224529400972075e-05,2.9999208138589339434,0.099161650137863169285,0.18631348778283651768,5.5165875199553742192,0.8924486607567673202,2.8645140260596164694,0.18629959715160457345,34,34,-0.015310104005038738251,0,0
1.6532291105845687342e-05,2.9999203686330124796,0.09916167621126369125,0.18631367535697188065,5.5165875595038835755,0.89244867478947809136,2.8645139880325252157,0.18629964480132768512,35,35,-0.015289096161723136902,0,0
1.6532359884424619367e-05,2.9999199691947637803,0.099161702453696640158,0.18631386913486014389,5.5165877141543422368,0.89244871305005579742,2.8645140260596804183,0.1862996888815318941,36,36,-0.015268087387084960938,0,0
1.6532430888518838722e-05,2.9999195150220683281,0.099161729080437743811,0.18631406918231716019,5.5165877557603888448,0.89244872763533356075,2.8645139880324683723,0.18629973750135447874,37,37,-0.015247079543769359589,0,0
1.6532504142204782594e-05,2.9999191063703452009,0.099161755892737457607,0.18631427556711507854,5.5165879125301255925,0.89244876646506809958,2.8645140260597421467,0.1862997825806198271,38,38,-0.015226070769131183624,0,0
1.6532579670684808409e-05,2.999918642552196868,0.099161783116098606294,0.18631448836019548487,5.5165879563543587238,0.89244878164617569283,2.8645139880324115289,0.18629983224642768236,39,39,-0.015205062925815582275,0,0
1.6532657499872090092e-05,2.9999182239824104812,0.099161810541909756189,0.18631470763449958783,5.5165881154053701962,0.89244882108869427739,2.8645140260598025428,0.18629987840128039989,40,40,-0.015184054151177406311,0,0
1.6532737656822842033e-05,2.9999177498076878834,0.099161838405939936592,0.18631493346618591134,5.5165881616112892871,0.89244883690966414491,2.8645139880323546855,0.18629992919030857745,41,41,-0.015163046307861804962,0,0
1.6532820169321049334e-05,2.9999173206022482496,0.099161866489711536499,0.18631516593346025834,5.5165883231085643956,0.89244887700939923292,2.8645140260598656035,0.18629997649868504372,42,42,-0.015142037533223628998,0,0
1.653290506631238923e-05,2.9999168353461866943,0.099161895039303060706,0.18631540511779795533,5.5165883718628103694,0.89244889351510303666,2.864513988032297398,0.18630002848964696827,43,43,-0.015121029689908027649,0,0
1.6532992377488808864e-05,2.9999163947732716551,0.099161923826364281598,0.18631565110277345521,5.516588535974606522,0.89244893431736482814,2.8645140260599286641,0.18630007703102666183,44,44,-0.015100020915269851685,0,0
1.6533082133724164497e-05,2.9999158976963240519,0.099161953107324146695,0.18631590397528743908,5.5165885874472166961,0.89244895155358994199,2.8645139880322396664,0.18630013030423950293,45,45,-0.015079013071954250336,0,0
1.6533174366658646813e-05,2.9999154450087184287,0.099161982643956245176,0.18631616382439594726,5.5165887543453431263,0.89244899310463976505,2.864514026059992613,0.18630018015977067858,46,46,-0.015058004297316074371,0,0
1.6533269109136137912e-05,2.9999149353553251629,0.099162012703081975351,0.18631643074254236603,5.5165888087100292125,0.8924490111181622165,2.8645139880321797143,0.18630023479728846647,47,47,-0.015036996454000473022,0,0
1.6533366394788514647e-05,2.9999144697891750866,0.099162043036595565182,0.18631670482438603131,5.5165889785701036629,0.89244905346528824452,2.8645140260600503446,0.18630028604992460162,48,48,-0.015015987679362297058,0,0
1.6533466258474760664e-05,2.9999139467865134634,0.099162073921752802441,0.18631698616803929469,5.5165890360045892749,0.89244907230395198461,2.864513988032123315,0.1863003421356724254,49,49,-0.014994979836046695709,0,0
1.6533568735865120661e-05,2.9999134675600882538,0.099162105100564404414,0.18631727487389571074,5.5165892090063497477,0.89244911549554684083,2.8645140260601089643,0.1863003948703056134,50,50,-0.014973971061408519745,0,0
1.653367386388197765e-05,2.9999129304169023236,0.099162136860759364509,0.18631757104587201579,5.5165892696925560301,0.89244913520833513143,2.8645139880320655834,0.1863004524902097947,51,51,-0.014952963218092918396,0,0
1.6533781680283925897e-05,2.9999124367293172888,0.099162168934470953929,0.1863178747902359822,5.5165894460201734262,0.89244917929397704626,2.8645140260601738014,0.18630050679380952272,52,52,-0.014931954443454742432,0,0
1.6533892224108393069e-05,2.9999118846345069755,0.099162201619937287433,0.18631818621685336534,5.5165895101445858728,0.89244919993109561585,2.8645139880320056314,0.18630056603594810638,53,53,-0.014910946600139141083,0,0
1.6534005535255645418e-05,2.9999113756645781059,0.09916223463940691818,0.18631850543801573017,5.5165896899868540615,0.89244924496161726069,2.8645140260602306448,0.18630062199768746001,54,54,-0.014889937825500965118,0,0
1.6534121654933198859e-05,2.9999108077859801824,0.099162268301682232607,0.18631883256969214435,5.5165897577408422592,0.89244926657457723795,2.8645139880319452352,0.18630068295242335763,55,55,-0.01486892998218536377,0,0
1.6534240625239746223e-05,2.9999102826906707264,0.099162302319120432248,0.18631916773035683832,5.5165899412916168387,0.89244931260216298075,2.8645140260602928173,0.18630074066384555431,56,56,-0.014847921207547187805,0,0
1.6534362489611391156e-05,2.9999096981737811696,0.099162337011124548902,0.18631951104224608873,5.516590012871641413,0.89244933524385450241,2.8645139880318808423,0.18630080342396657112,57,57,-0.014826913364231586456,0,0
1.6534487292405524545e-05,2.999909156087042561,0.099162372080166191757,0.18631986263018568417,5.5165902003300777423,0.89244938232211268314,2.8645140260603589866,0.18630086297911160886,58,58,-0.014805904589593410492,0,0
1.6534615079348901565e-05,2.9999085540535177508,0.09916240785629441834,0.18632022262285299896,5.5165902759380980314,0.89244940604689926289,2.8645139880318160053,0.18630092763999184236,59,59,-0.014784896746277809143,0,0
1.6534745897121467281e-05,2.9999079940848405457,0.099162444032087918022,0.18632059115160426455,5.5165904675089496578,0.89244945423094812487,2.8645140260604229354,0.18630098913555431794,60,60,-0.014763887971639633179,0,0
1.6534879793806307328e-05,2.9999073736312511507,0.099162480948288597715,0.18632096835174191685,5.5165905473527097058,0.89244947909474703351,2.8645139880317502801,0.186301055795290188,61,61,-0.01474288012832403183,0,0
1.653501681847347691e-05,2.999906794864234616,0.099162518287585169063,0.18632135436134186768,5.5165907432467076177,0.89244952844130698288,2.8645140260604908811,0.18630111933077389552,62,62,-0.014721871353685855865,0,0
1.6535157021631814944e-05,2.999906155060564128,0.09916255640145180128,0.18632174932252593136,5.5165908275400221683,0.89244955450167640087,2.8645139880316747849,0.18630118809034765248,63,63,-0.014700863510370254517,0,0
1.6535300454812793393e-05,2.999905556551484942,0.099162594962694222689,0.18632215338028937368,5.5165910279742229605,0.89244960506916060083,2.8645140260605699289,0.18630125376822084804,64,64,-0.014679854735732078552,0,0
1.6535447171024255866e-05,2.9999048964396641814,0.099162634333556917698,0.1863225666837786676,5.5165911169373700318,0.89244963238539443129,2.8645139880316001779,0.18630132473165894602,65,65,-0.014658846892416477203,0,0
1.6535597224334297445e-05,2.9999042772159985049,0.099162674176970444506,0.18632298938511895892,5.5165913221354347939,0.89244968423399462232,2.8645140260606614113,0.18630139265751546884,66,66,-0.014637838117778301239,0,0
1.6535750670326937911e-05,2.9999035958083690723,0.099162714865990694846,0.18632342164069728985,5.516591415995497627,0.89244971286721475057,2.8645139880315246828,0.18630146593205532124,67,67,-0.01461683027446269989,0,0
1.6535907565686076105e-05,2.9999029548673394885,0.099162756053673653533,0.18632386360999042552,5.5165916261880161287,0.89244976605899584143,2.8645140260607586669,0.18630153621477410497,68,68,-0.014595821499824523926,0,0
1.6536067968653141825e-05,2.9999022511451065576,0.099162798123940507078,0.18632431545685343433,5.5165917251792544462,0.89244979607224950158,2.8645139880314447467,0.18630161191103195018,69,69,-0.014574813656508922577,0,0
1.6536231938611114562e-05,2.9999015874519856517,0.0991628407199686146,0.18632477734834765326,5.5165919406041563633,0.8924498506712489343,2.8645140260608510374,0.18630168466295893293,70,70,-0.014553804881870746613,0,0
1.6536399536544215056e-05,2.9999008603637120629,0.099162884236592196974,0.18632524945603518018,5.5165920449683358839,0.8924498821296057427,2.8645139880313545966,0.18630176289509464693,71,71,-0.014532797038555145264,0,0
1.6536570824622012115e-05,2.9999001728502743269,0.099162928307115483229,0.18632573195480681139,5.5165922658712931437,0.89244993820193707634,2.864514026060948293,0.18630183823221130313,72,72,-0.014511788263916969299,0,0
1.6536745866661170773e-05,2.9998994213101242146,0.099162973337335216795,0.18632622502418244581,5.5165923758581119074,0.89244997117259228236,2.8645139880312657787,0.18630191911811708194,73,73,-0.01449078042060136795,0,0
1.653692472770971835e-05,2.9998987088729260897,0.099163018950683787245,0.18632672884713949446,5.5165926024928850779,0.89245002878654500211,2.8645140260610548744,0.1863019971602274949,74,74,-0.014469771645963191986,0,0
1.6537107474510839042e-05,2.9998979317590879212,0.099163065563966618088,0.18632724361141872471,5.5165927183602789796,0.89245006333892051842,2.8645139880311747405,0.18630208082170229833,75,75,-0.014448763802647590637,0,0
1.6537294175087346657e-05,2.9998971932578104571,0.099163112790753682457,0.18632776950835350238,5.516592950989125832,0.89245012256506672799,2.8645140260611743344,0.1863021616926127666,76,76,-0.014427755028009414673,0,0
1.6537484899207579843e-05,2.9998963894106194239,0.099163161058909488066,0.18632830673418146472,5.5165930730037402441,0.89245015877092104262,2.8645139880310788172,0.18630224825556312984,77,77,-0.014406747184693813324,0,0
1.6537679717970084895e-05,2.9998956236662914776,0.099163209972141480586,0.18632885548887417881,5.51659331189778257,0.89245021968222526532,2.8645140260612982352,0.1863023320832768448,78,78,-0.01438573841005563736,0,0
1.6537878704271689547e-05,2.9998947918865703777,0.099163259969427028362,0.18632941597745503182,5.516593440335363141,0.89245025761576513013,2.8645139880309780089,0.186302421677898844,79,79,-0.014364730566740036011,0,0
1.6538081932392416172e-05,2.9998939976796576978,0.099163310644621457945,0.18632998840882941671,5.5165936857750672573,0.89245032028769732957,2.8645140260614248007,0.18630250859482097581,80,80,-0.014343721792101860046,0,0
1.6538289478465737533e-05,2.9998931367267576142,0.099163362447861155835,0.18633057299710875654,5.5165938209208862375,0.89245036002569466671,2.8645139880308669866,0.18630260135581283576,81,81,-0.014322713948786258698,0,0
1.6538501420063801689e-05,2.9998923127954046919,0.0991634149631561157,0.18633116996044163383,5.5165940731964360211,0.89245042453634526591,2.8645140260615478134,0.18630269149894360114,82,82,-0.014301705174148082733,0,0
1.6538717836669917139e-05,2.9998914213853060673,0.099163468651859917879,0.18633177952234378227,5.5165942153458038533,0.89245046615825729397,2.8645139880307581848,0.18630278756570989307,83,83,-0.014280697330832481384,0,0
1.6538938809264102986e-05,2.9998905664232764501,0.099163523088141317108,0.18633240191053027091,5.5165944747575901275,0.89245053258846096522,2.8645140260616757111,0.18630288107686721055,84,84,-0.01425968855619430542,0,0
1.6539164420797861072e-05,2.9998896432266599632,0.099163578744623892547,0.18633303735825190728,5.5165946242161778557,0.8924505761765446632,2.8645139880306413893,0.18630298059373184838,85,85,-0.014238680712878704071,0,0
1.6539394755780071733e-05,2.9998887558813547294,0.099163635185648427162,0.18633368610312817104,5.5165948910752673484,0.89245064461000533917,2.8645140260618040529,0.18630307761976638847,86,86,-0.014217671938240528107,0,0
1.6539629900754134232e-05,2.9998877995214940917,0.099163692895159957774,0.1863343483884903895,5.5165950481596635058,0.89245069024945222758,2.8645139880305166002,0.18630318073619950292,87,87,-0.014196664094924926758,0,0
1.6539869943884265708e-05,2.9998868783918783976,0.099163751427683494155,0.18633502446221569815,5.5165953227882607024,0.89245076077287022187,2.8645140260619310624,0.18630328142922028545,88,88,-0.014175655320286750793,0,0
1.6540114975434992971e-05,2.9998858874425606835,0.099163811278538613325,0.18633571457807671101,5.5165954878264473749,0.8924508085519348155,2.8645139880303864821,0.18630338830006434869,89,89,-0.014154647476971149445,0,0
1.6540365087357922398e-05,2.9998849310770263621,0.099163871992448887616,0.18633641899457681346,5.5165957705584052206,0.89245088125514238087,2.8645140260620660655,0.18630349281767091818,90,90,-0.01413363870233297348,0,0
