"epsilon","mach_number","pressure","rad_temp","rho","rhoE","rhou","temperature","GlobalNodeId","PedigreeNodeId","Points:0","Points:1","Points:2"
3.0072005187704850524e-06,2.9999354921998890866,0.017975016198564976871,0.1216752000809493417,0.99999999195077804437,0.16177536369605749478,0.51925492710459220103,0.12156013041581148482,1,1,-0.013100544922053813934,0,0
3.0072983777252968737e-06,2.9999028727603365141,0.017975388819175711769,0.1216761899436582528,1.0000013827981022452,0.16177578556969129941,0.51925502425654512795,0.12156248127248640845,2,2,-0.012969539500772953033,0,0
3.0075895383241495219e-06,2.9998698425739731555,0.017975753695134821797,0.12167913494791977869,1.0000027277063523456,0.16177610112591497837,0.51925492710272913577,0.12156478533235991202,3,3,-0.012838534079492092133,0,0
3.0080751448792541739e-06,2.9998368512339332881,0.017976130412212205228,0.12168404624045851825,1.0000041342135188582,0.16177652703503855869,0.51925502425667213746,0.12156716197558646575,4,4,-0.012707528658211231232,0,0
3.0087596113589459033e-06,2.9998023387405536866,0.017976511859283447053,0.12169096773849218118,1.0000055410984367565,0.16177685909314146184,0.51925492710138143604,0.12156957055368521059,5,5,-0.012576523236930370331,0,0
3.0096506767261409878e-06,2.9997667362955362513,0.017976917830754904348,0.12169997664750369093,1.0000070565953316226,0.16177731419286972558,0.51925502425745306834,0.12157213177158295025,6,6,-0.01244551781564950943,0,0
3.0107594257292260435e-06,2.9997284772044361389,0.017977341288382502754,0.12171118360348906484,1.0000086198508686408,0.16177768818682963792,0.51925492710057685741,0.12157480542860847617,7,7,-0.012314512394368648529,0,0
3.0121004570516167013e-06,2.9996879359864800918,0.017977802665977180713,0.1217247342755236883,1.0000103413882959202,0.16177819862194409151,0.51925502425944813911,0.1215777162736982886,8,8,-0.012183506973087787628,0,0
3.0136920166243465986e-06,2.9996435010892832373,0.017978295427187488548,0.12174081058119995413,1.0000121623237814283,0.1617786418344248911,0.51925492710128429152,0.12158082726028177079,9,9,-0.012052501551806926727,0,0
3.0155562824786379873e-06,2.9995954508213076295,0.017978841090467316544,0.12175963339103648697,1.0000141971078191361,0.16177923647300848642,0.51925502426396341615,0.12158426999253645062,10,10,-0.011921496130526065826,0,0
3.0177196182757724769e-06,2.9995420880588463675,0.017979434079327377,0.12178146486392797676,1.0000163905434473754,0.16177977981234750726,0.51925492710479459468,0.12158801346575204283,11,11,-0.011790490709245204926,0,0
3.0202129864606302768e-06,2.9994835514822635325,0.017980097486585092104,0.12180661232888032042,1.0000188628089781151,0.16178049209616784943,0.51925502427347824952,0.12159219923119210516,12,12,-0.011659485287964344025,0,0
3.0230723375799802255e-06,2.999418012495302488,0.017980827212410354504,0.12183543184356097899,1.00002156433374223,0.16178117204967928933,0.51925492711384768629,0.12159680558414677487,13,13,-0.011528479866683483124,0,0
3.0263391715191401836e-06,2.9993454201139617687,0.017981648489284237508,0.12186833338293800999,1.0000246231002112296,0.16178204208180377299,0.51925502429166670026,0.12160198759170190441,14,14,-0.011397474445402622223,0,0
3.030061086794001152e-06,2.9992637602874885339,0.017982559302634038012,0.12190578577569997909,1.0000279974535224436,0.16178290297054442881,0.51925492713276633072,0.12160773668480978627,15,15,-0.011266469024121761322,0,0
3.0342925188465633435e-06,2.9991727326388892827,0.017983587700700628259,0.12194832337812694378,1.0000318256615803314,0.16178397997269844399,0.51925502432483194859,0.12161422571406454995,16,16,-0.011135463602840900421,0,0
3.0390954833999330336e-06,2.9990700722957597257,0.017984734492451946025,0.12199655258811624436,1.0000360767656579775,0.16178507664880828476,0.51925492716921561875,0.12162146389787527323,17,17,-0.01100445818156003952,0,0
3.0445405315643454329e-06,2.9989551565259113808,0.017986031369721228873,0.12205116022243485407,1.0000409023546821263,0.16178642194019524081,0.51925502438336057498,0.12162964709503566729,18,18,-0.010873452760279178619,0,0
3.0507077331499102872e-06,2.9988253889576252931,0.017987482878362923144,0.12211292184109190373,1.0000462856117089405,0.16178782309196443334,0.519254927235997088,0.12163880806421094316,19,19,-0.010742446407675743103,0,0
3.0576879013540860448e-06,2.9986797340129278666,0.017989125383443171219,0.1221827120697425717,1.0000523952208464351,0.16178951377100364573,0.51925502448431370972,0.12164917216925076604,20,20,-0.010611440986394882202,0,0
3.065583876342214741e-06,2.9985151631516826498,0.017990968310887613807,0.12226151497837499382,1.0000592328238808726,0.16179130603579458536,0.51925492735459988225,0.12166080290697992017,21,21,-0.010480435565114021301,0,0
3.0745120883252629519e-06,2.9983301146844540952,0.017993053992340139052,0.12235043658533080457,1.0000669889401965218,0.16179343958657038671,0.51925502465599970847,0.12167396330455254594,22,22,-0.0103494301438331604,0,0
3.0846042195952429056e-06,2.9981210014809001052,0.01799539817505719716,0.12245071750760615215,1.0000756891170476948,0.161795732718077373,0.51925492756006053074,0.12168875666787999645,23,23,-0.0102184247225522995,0,0
3.0960091947990347485e-06,2.9978855932564005826,0.017998050791538884596,0.12256374782870201046,1.000085551703726594,0.16179843281671796307,0.51925502494458952718,0.12170549399146919634,24,24,-0.010087419301271438599,0,0
3.1088953219913312233e-06,2.9976195849663680448,0.018001035735798351367,0.12269108214886090269,1.0000966330544338589,0.16180136621535123886,0.51925492791015770422,0.12172432987351849976,25,25,-0.0099564138799905776978,0,0
3.1234528240131448996e-06,2.9973198981079880454,0.018004412613184993253,0.12283445686658084339,1.0001091869557623415,0.16180479008230350124,0.51925502542576496001,0.12174563633217107272,26,26,-0.0098254084587097167969,0,0
3.1398965872792258992e-06,2.9969813086786758483,0.018008215782570481667,0.12299580757184223889,1.0001233093391055373,0.16180854107638306671,0.51925492850004195677,0.12176963383123459717,27,27,-0.009694403037428855896,0,0
3.1584693798008729432e-06,2.9965996634102296525,0.018012517154397424124,0.12317728854193174537,1.0001392990999693478,0.16181288881062710905,0.5192550262227433322,0.12179677198747389244,28,28,-0.0095633976161479949951,0,0
3.1794453719351565036e-06,2.9961685657049348386,0.018017364500768205671,0.12338129209648120155,1.0001573029170636175,0.16181768317946604308,0.51925492948538198856,0.12182735565050607784,29,29,-0.0094323921948671340942,0,0
3.2031342265083304585e-06,2.9956825020036763618,0.018022845385442305688,0.12361046969711310395,1.0001776771099011309,0.16182320962778840023,0.51925502753687347024,0.12186193310024719116,30,30,-0.0093013867735862731934,0,0
3.2298856005693086839e-06,2.9951335836336263618,0.018029024746347228209,0.12386775237481403855,1.0002006333400692561,0.16182933498889395807,0.51925493112081588798,0.12190091711971282051,31,31,-0.0091703813523054122925,0,0
3.2600943434394473068e-06,2.9945145775758232887,0.018036010062331211262,0.12415637220874571611,1.0002266010489138104,0.16183636485093311208,0.51925502969595505043,0.12194498143298081183,32,32,-0.0090393759310245513916,0,0
3.2942062450336715112e-06,2.9938157016823114809,0.0180438882152865257,0.12447988221270384068,1.0002558750379384467,0.1618441877013591379,0.51925493382126453046,0.12199467669976093998,33,33,-0.0089083705097436904907,0,0
3.3327246411369980512e-06,2.9930275530077175006,0.018052792025662491027,0.12484217613717088491,1.0002889778971408852,0.16185313476132701105,0.51925503323299082581,0.12205083613817402366,34,34,-0.0087773650884628295898,0,0
3.3762177450055860357e-06,2.9921379534901668684,0.018062836403613363734,0.12524750527564276759,1.0003263107374442686,0.16186312217673923253,0.51925493826257562713,0.12211418634906651137,35,35,-0.008646359667181968689,0,0
3.4253270389701056529e-06,2.9911347676721029565,0.018074186421366638527,0.1257004935384583022,1.0003685148612653233,0.1618745137924237909,0.51925503901450498212,0.12218576332246212923,36,36,-0.0085153542459011077881,0,0
3.480776615320644078e-06,2.9900027957918298149,0.018086992764485550905,0.12620614761772702694,1.0004161272702345453,0.16188726105783360354,0.51925494554377649159,0.12226651796357358715,37,37,-0.0083843488246202468872,0,0
3.5433838332904445702e-06,2.9887264713514651859,0.018101461554860084208,0.12676986329557990429,1.0004699406240311621,0.16190176934226341299,0.51925504844638503688,0.12235774400234945836,38,38,-0.0082533434033393859863,0,0
3.6140712068096552853e-06,2.9872867986406959062,0.018117789115986465687,0.1273974245432644703,1.0005306656085399819,0.16191803513107735912,0.51925495744945826537,0.12246067804703296422,39,39,-0.0081223379820585250854,0,0
3.693879930480008222e-06,2.9856639194096592504,0.018136233817736473889,0.12809499639502439083,1.000599287946060123,0.16193651664748903718,0.51925506380756636382,0.12257694131852550634,40,40,-0.0079913325607776641846,0,0
3.7839849903670728206e-06,2.9838340925864410558,0.018157050171795661997,0.12886910828790432149,1.0006767403190257593,0.16195726779732780298,0.51925497687267962998,0.12270813398221450119,41,41,-0.0078603271394968032837,0,0
3.8857123166964780439e-06,2.9817721184124965639,0.018180563043380164323,0.12972662906912929559,1.0007642548215842648,0.16198081407222839068,0.51925508878672288482,0.12285629314376995957,42,42,-0.0077293217182159423828,0,0
4.0005579645448995278e-06,2.9794483600614998231,0.018207101093320202101,0.13067473076994962078,1.0008630479304387872,0.16200728254849389165,0.51925500849537753467,0.12302348108732613641,43,43,-0.0075983158312737941742,0,0
4.1302098398082774596e-06,2.9768310134379718512,0.018237073797182215551,0.13172084297673103404,1.0009746662952643259,0.16203728431411282274,0.51925512934456152792,0.12321226262564487219,44,44,-0.0074673104099929332733,0,0
4.2765720044213882393e-06,2.9738831744761058395,0.018270904245946611305,0.13287259575256418764,1.0011006892824039216,0.16207103962867724922,0.51925505987937314867,0.1234252866681453259,45,45,-0.0073363049887120723724,0,0
4.4417921502632867273e-06,2.9705649439449772764,0.018309109536985015976,0.13413775399250843501,1.0012430653643931144,0.16210926845913661842,0.5192551950930108795,0.1236657868595922305,46,46,-0.0072052995674312114716,0,0
4.6282923321937815934e-06,2.9668305516714261749,0.018352232932123773573,0.13552414237977461475,1.0014038381141747713,0.16215230964796051305,0.51925514320920174161,0.12393715556684339885,47,47,-0.0070742941461503505707,0,0
4.8388036345452575528e-06,2.9626302894825613521,0.018400928341783823888,0.13703956509787157403,1.0015854695714760947,0.16220102157792146147,0.51925530149189280671,0.12424347279130605604,48,48,-0.0069432887248694896698,0,0
5.0764049254366905685e-06,2.9579077159610069891,0.018455891814713316218,0.13869172070944851827,1.0017905974042380368,0.16225589385727956504,0.51925527805941196213,0.1245890711382057342,49,49,-0.0068122833035886287689,0,0
5.3445664701563827824e-06,2.9526014185298152803,0.018517951035384373759,0.14048811741019401333,1.002022340381778065,0.16231796068545392697,0.51925547332765675801,0.12497909930055205174,50,50,-0.006681277882307767868,0,0
5.647198625544805132e-06,2.9466423425188570384,0.018587996068349446621,0.14243598982641711426,1.0022840968900490477,0.162387903116201604,0.51925549576183149814,0.12541907570287913476,51,51,-0.0065502724610269069672,0,0
5.9887064918334675879e-06,2.9399553971300309563,0.018667075040851258128,0.14454222287734375119,1.0025798258779778926,0.16246697839385451645,0.51925575017810354783,0.12591549448409528056,52,52,-0.0064192670397460460663,0,0
6.3740508062178807461e-06,2.9324569835945477614,0.018756323968446796807,0.14681328367945969959,1.0029139002793212576,0.16255611025818572646,0.519255846235648022,0.12647536407911513789,53,53,-0.0062882616184651851654,0,0
6.8088160584807186728e-06,2.9240564815715925917,0.018857070106872573373,0.14925516627461254959,1.0032913542085097891,0.16265683839476313688,0.51925619491229613178,0.12710686560285661129,54,54,-0.0061572561971843242645,0,0
7.2992861519516347301e-06,2.9146540967626419771,0.018970760506255388012,0.1518733489089633959,1.0037178094822638563,0.16277039343750362987,0.51925640854673549285,0.12781887025864263618,55,55,-0.0060262507759034633636,0,0
7.8525286720556149384e-06,2.904142295541476404,0.019099074894010678594,0.15467276700147936097,1.0041996759216385016,0.16289867175645778019,0.51925690673479463211,0.12862166235740735143,56,56,-0.0058952453546226024628,0,0
8.4764880666242520404e-06,2.8924041556794430896,0.019243852275999003693,0.15765779959642606256,1.0047441756510451238,0.16304329070376072375,0.51925730698107885885,0.12952642546873624485,57,57,-0.0057642399333417415619,0,0
9.1800888198162091937e-06,2.879314856811913792,0.019407215646674316756,0.16083227047586493019,1.0053594772276623903,0.1632065952638646622,0.51925804084761206791,0.13054604492413202088,58,58,-0.005633234512060880661,0,0
9.9733487822615417604e-06,2.8647407999610452478,0.019591495350713916679,0.16419945978436145673,1.0060548515174891904,0.16339068752724963951,0.51925873500351316103,0.13169454590916107595,59,59,-0.0055022290907800197601,0,0
1.0867503620897708949e-05,2.8485413031666575456,0.019799368371812064993,0.16776212575665547244,1.0068407105128329704,0.16359847323331860869,0.51925983735580594214,0.13298799298485511344,60,60,-0.0053712232038378715515,0,0
1.1875142171090984685e-05,2.8305688520153622356,0.020033776054148005191,0.17152253102226724946,1.0077289415012793405,0.16383265720140854915,0.51926098993296831985,0.13444385186952217959,61,61,-0.0052402177825570106506,0,0
1.3010353261381241643e-05,2.8106711767593512974,0.020298081092371512285,0.17548247229713181961,1.0087328050318042916,0.16409683939373928552,0.51926266227901296535,0.13608200575979800817,62,62,-0.0051092123612761497498,0,0
1.4288882970436974509e-05,2.7886930938548388781,0.02059597515430216727,0.17964330729437757994,1.0098675125071503444,0.16439446468238314014,0.51926452099788589223,0.1379239929093611372,63,63,-0.0049782069399952888489,0,0
1.5728301979222731038e-05,2.7644791203514582634,0.020931656747361488541,0.18400597768377180419,1.0111499097060088204,0.16472997944284809013,0.51926706265995548062,0.13999416039798953659,64,64,-0.004847201518714427948,0,0
1.7348180361041362732e-05,2.7378774412757937995,0.021309720474404002938,0.18857102178156812111,1.0125993892257338924,0.16510771890942479989,0.51926999150167429953,0.1423186958210889419,65,65,-0.0047161960974335670471,0,0
1.9170267649187841346e-05,2.7087430969961090454,0.021735358195039255341,0.19333857631426140666,1.0142372366940495265,0.16553313576967201848,0.5192738341304243832,0.14492693711131737766,66,66,-0.0045851906761527061462,0,0
2.1218672537307741078e-05,2.6769446313220250921,0.022214214621645821113,0.19830836083274475112,1.0160880071784532674,0.16601160034273027,0.51927834974068864948,0.14785005875214640714,67,67,-0.0044541852548718452454,0,0
2.3520036685796654922e-05,2.6423675992221546949,0.022752611713373022823,0.20347964480714253455,1.0181783228735463709,0.16654971071607960198,0.51928408952415561206,0.15112254966816737745,68,68,-0.0043231798335909843445,0,0
2.6103691756635125424e-05,2.6049243932587309303,0.023357342526814654088,0.20885119054322823229,1.0205388970934177184,0.16715396835474566339,0.51929088847253601635,0.15478031664318347982,69,69,-0.0041921744123101234436,0,0
2.9001788398419522225e-05,2.5645572893785035795,0.024035913132353432797,0.21442117276977032403,1.0232024119899074677,0.16783217228866434412,0.51929929501720173413,0.15886233219110076909,70,70,-0.0040611689910292625427,0,0
3.2249377719107506367e-05,2.521251830717216702,0.02479622406870028023,0.22018706720906358609,1.0262064555462711013,0.16859191340648155277,0.51930924116632959375,0.16340775869317852864,71,71,-0.0039301635697484016418,0,0
3.5884425121624905148e-05,2.4750377924326092405,0.025646813837670593555,0.22614551049713269015,1.0295898182886928929,0.1694420388383176268,0.51932119610164106938,0.16845776858969713219,72,72,-0.0037991579156368970871,0,0
3.9947724365264028381e-05,2.4260064009241961713,0.026596340201777646239,0.23229212307645721869,1.0333967455072883279,0.17039088146145994762,0.51933520450158410231,0.1740510523401918308,73,73,-0.0036681524943560361862,0,0
4.4482680592970238207e-05,2.3743063696604589374,0.027653796418727644157,0.23862130132453329701,1.0376704838875874248,0.17144775084811880728,0.51935148073235637423,0.18022588266272010493,74,74,-0.0035371470730751752853,0,0
4.953491512597242726e-05,2.3201652655475921705,0.028827652492330213541,0.24512597152978909953,1.0424595312526909741,0.17262078870961652943,0.519370189903436974,0.18701306029155920219,75,75,-0.0034061416517943143845,0,0
5.5151653459703612334e-05,2.2638759308721638774,0.030126016558505681192,0.25179732178098190865,1.047806436957460674,0.17391840397630303761,0.51939094034141919387,0.1944386118075712433,76,76,-0.0032751362305134534836,0,0
6.1380840760180902372e-05,2.2058225526719539289,0.031555249516158859202,0.25862450971910028175,1.0537574324156908645,0.17534665846648647691,0.51941405263644546686,0.20251296451794464915,77,77,-0.0031441308092325925827,0,0
6.8269961439706893717e-05,2.1464498908824225509,0.033120118407888664291,0.26559438333977047897,1.0603433252200853421,0.17691055020205542769,0.5194379250212848298,0.21123566063872895038,78,78,-0.0030131253879517316818,0,0
7.5864527254915716426e-05,2.0862952392386553413,0.034821728477966940041,0.27269122389174932364,1.0675957471244474917,0.17861099289069873319,0.51946327173737660843,0.22057960421908423543,79,79,-0.0028821199666708707809,0,0
8.4206284080389325465e-05,2.0259287281398496994,0.036657990433249951212,0.27989658382806292813,1.0755156490522923551,0.18044594472962052767,0.51948643247162018532,0.23050151441333618929,80,80,-0.0027511145453900098801,0,0
9.3331177322980617486e-05,1.9659948515451539652,0.038620933064962031933,0.28718923595116202518,1.0841037213723219157,0.18240752089154732563,0.51950944064013526713,0.24092051903641378829,81,81,-0.0026201088912785053253,0,0
0.00010326728874022537258,1.9071086699448043245,0.040698377763863216594,0.29454534659060999102,1.0933102798070208905,0.18448318328363469409,0.51952561419368981088,0.25174191436847714876,82,82,-0.0024891034699976444244,0,0
0.00011403288773189318537,1.8499195891057194086,0.04287101381266768263,0.3019388542724367186,1.1030950065836624407,0.18665431580080729668,0.51954065359328915896,0.26282864651286130808,83,83,-0.0023580980487167835236,0,0
0.00012563501105115613726,1.7949503029130982057,0.045116706192485214744,0.30934218068504526489,1.1133471208579599487,0.18889759704169525878,0.51954358269090972211,0.2740492759069974027,84,84,-0.0022270926274359226227,0,0
0.0001380686656218681771,1.742714981952081077,0.047407446195698185742,0.31672712167448791032,1.1239987989930297907,0.19118688885244106146,0.51954781987582954184,0.28523484377783248078,85,85,-0.0020960872061550617218,0,0
0.00015131715353572901326,1.6934937601145820807,0.04971731819447313544,0.32406603308219439352,1.1348904119467502216,0.19349353496786547701,0.51953517734715848331,0.2962617820152644299,86,86,-0.0019650817848742008209,0,0
0.00016535315537312032189,1.6475572208351350056,0.05201791052693878481,0.3313329245456943517,1.1459717922703691606,0.19579306234907553619,0.5195319890247948047,0.3069734668473863004,87,87,-0.0018340762471780180931,0,0
0.00018014105811581276233,1.6048627940239337253,0.054289620219312516303,0.3385046582515934821,1.157061262874172769,0.19806045696097102082,0.5195064241567228791,0.31730894335224146818,88,88,-0.0017030708258971571922,0,0
0.00019563929961402169114,1.565437768434645438,0.05651252882870197447,0.34556161656606282362,1.1681870795247086825,0.20028311824196212698,0.51950427700844570289,0.32715548540276456757,89,89,-0.0015720654046162962914,0,0
0.00021180361776894010692,1.5289556748699655309,0.058680387060311034464,0.35248838881681338053,1.1791551154543808977,0.20244515917063843347,0.51946959941081649603,0.33654558207505347323,90,90,-0.0014410599833354353905,0,0
