"epsilon","mach_number","pressure","rad_temp","rho","rhoE","rhou","temperature","GlobalNodeId","PedigreeNodeId","Points:0","Points:1","Points:2"
3.0073317761254358985e-06,2.999936144040052266,0.017975017799291996556,0.12167652776956081051,1.0000001604685946344,0.16177543695014207081,0.51925510730770629841,0.12156012075604530343,1,1,-0.013100544922053813934,0,0
3.0073381180139298642e-06,2.9999268415494961815,0.017975110556992694028,0.12167659191765110849,1.000000187969822818,0.16177543566781757423,0.51925484402400035044,0.12156074470789303421,2,2,-0.013067794032394886017,0,0
3.0073567319290609458e-06,2.999919469393758753,0.017975205135403623385,0.12167678019648853205,1.0000008553047174953,0.1617756242834935132,0.51925510731155555266,0.12156130319367267067,3,3,-0.013035042211413383484,0,0
3.0073875777402224471e-06,2.9999102224951013085,0.017975297262995324626,0.12167709219842938462,1.0000008804913282923,0.16177562236415413133,0.51925484402016341967,0.1215619231651719756,4,4,-0.013002290390431880951,0,0
3.0074306263891300316e-06,2.9999028908859011189,0.017975391380966120047,0.1216775276267014344,1.000001546157699206,0.1617758105181318351,0.51925510731541069109,0.12156247873878184285,5,5,-0.012969539500772953033,0,0
3.0074858642528702229e-06,2.9998936635539976692,0.017975483283214639674,0.12167808633953916542,1.0000015705308011871,0.16177580836657387553,0.51925484401636523568,0.12156309728478369159,6,6,-0.0129367876797914505,0,0
3.0075532885954533331e-06,2.999886336721262925,0.017975577342640262912,0.12167876830417485856,1.0000022360191360704,0.16177599646075180306,0.51925510731929080954,0.12156365248294714876,7,7,-0.012904036790132522583,0,0
3.0076329119751473862e-06,2.9998770933807570316,0.017975669419252649633,0.12167957364140871701,1.0000022610611660756,0.1617759944766843927,0.51925484401259125455,0.12156427212634869639,8,8,-0.01287128496915102005,0,0
3.0077247577095242818e-06,2.9998697359255603878,0.017975763817855233695,0.12168050257972574946,1.0000029278466244786,0.16177618290878187368,0.51925510732320601104,0.121564829459417309,9,9,-0.012838534079492092133,0,0
3.0078288643265802395e-06,2.9998604412941336506,0.017975856465240688115,0.12168155550029552403,1.0000029550279136981,0.16177618148858669,0.51925484400882471192,0.12156545270227255007,10,10,-0.0128057822585105896,0,0
3.0079452810427119204e-06,2.999853018034035923,0.017975951598307796098,0.12168273289120967728,1.000003624576814909,0.16177637065388653093,0.51925510732718305196,0.12156601466519285915,11,11,-0.012773031368851661682,0,0
3.008074072257221476e-06,2.9998436369687278003,0.017976045211304077925,0.12168403539290649495,1.0000036553619526813,0.16177637019233978566,0.51925484400504684501,0.12156664399961414347,12,12,-0.012740279547870159149,0,0
3.0082153130427825934e-06,2.9998361127853319097,0.017976141473401263671,0.12168546375252509151,1.000004329138030279,0.16177656048539593159,0.51925510733121205131,0.12156721308274874571,13,13,-0.012707528658211231232,0,0
3.0083690936830620628e-06,2.9998266101312025533,0.017976236446977166689,0.12168701886975114013,1.0000043649923024969,0.16177656137738402609,0.51925484400125987428,0.12156785100163723656,14,14,-0.012674776837229728699,0,0
3.0085355151753466746e-06,2.9998189498182918911,0.017976334233654536754,0.12168870175128468358,1.0000050444631733981,0.1617767531937253922,0.51925510733533497554,0.12156842970151893191,15,15,-0.012642025947570800781,0,0
3.0087146938111555204e-06,2.9998092902594142295,0.017976430964583404309,0.12169051355710464035,1.000005086858515746,0.16177675583590639397,0.51925484399742882768,0.12156907870915784065,16,16,-0.012609274126589298248,0,0
3.0089067566908070903e-06,2.9998014583743186634,0.017976530674047412617,0.12169245555504790146,1.0000057735019027838,0.16177694957371513418,0.51925510733957469522,0.12156966953903856898,17,17,-0.012576523236930370331,0,0
3.0091118463470002846e-06,2.9997916062838698714,0.017976629562593118838,0.1216945291674911972,1.0000058239232967328,0.16177695436620895264,0.51925484399354449039,0.12157033216171672652,18,18,-0.012543771415948867798,0,0
3.0093301162712763952e-06,2.9997835669990782215,0.017976731597374662891,0.12169673592604071666,1.0000065192330298558,0.16177715042798562761,0.51925510734392621437,0.12157093766211793384,19,19,-0.01251102052628993988,0,0
3.0095617355805997442e-06,2.9997734862899352315,0.017976833048971494616,0.12169907751863018319,1.0000065791847945196,0.16177715777605231051,0.51925484398958265952,0.12157161645872449629,20,20,-0.012478268705308437347,0,0
3.0098068845557755356e-06,2.9997652032432982061,0.017976937817611001597,0.12170155574432119094,1.0000072846772247726,0.16177735657030434258,0.5192551073484180657,0.12157223920805200479,21,21,-0.01244551781564950943,0,0
3.0100657593512694086e-06,2.9997548572186953919,0.017977042244543363358,0.12170417256081801638,1.0000073556892197235,0.16177736688602331605,0.51925484398554455634,0.12157293678068066545,22,22,-0.012412765994668006897,0,0
3.0103385675456912734e-06,2.9997462933640792748,0.017977150163270182864,0.12170693003937924082,1.0000080729093467902,0.16177756882893962187,0.51925510735306890098,0.12157357940583571332,23,23,-0.012380015105009078979,0,0
3.010625532895193439e-06,2.9997356445677278991,0.017977257986358664843,0.12170983041275060255,1.0000081565431611086,0.16177758253289506452,0.51925484398140331344,0.12157429841043303209,24,24,-0.012347263284027576447,0,0
3.0109268908962978364e-06,2.9997267620238501351,0.017977369480792097095,0.12171287603018991763,1.000008887070966912,0.16177778805004919271,0.5192551073578792753,0.12157496359754416115,25,25,-0.012314512394368648529,0,0
3.0112428935833004734e-06,2.9997157720869216391,0.017977481131115875118,0.12171606940581992939,1.0000089849264792718,0.16177780557305701525,0.51925484397716703544,0.12157570675475859456,26,26,-0.012281760573387145996,0,0
3.0115738051038418442e-06,2.9997065319826798913,0.017977596638005244323,0.12171941317376938629,1.0000097303834440954,0.16177801510114309114,0.51925510736289293146,0.12157639726015506687,27,27,-0.012249009683728218079,0,0
3.011919906560859812e-06,2.9996951614708318168,0.017977712558622706979,0.12172291013694880313,1.0000098441049007914,0.16177803688596231746,0.51925484397278987014,0.1215771673662319613,28,28,-0.012216257862746715546,0,0
3.0122814916013995668e-06,2.9996855237903927716,0.017977832527592080281,0.12172656322231129034,1.0000106061605096297,0.16177825087454703046,0.51925510736812252599,0.12157788602744953876,29,29,-0.012183506973087787628,0,0
3.0126588713038378778e-06,2.9996737320447923736,0.017977953175330897012,0.12173037553005548739,1.0000107374433802043,0.16177827737767247473,0.5192548439682561634,0.12157868596550103213,30,30,-0.012150755152106285095,0,0
3.0130523697805009594e-06,2.9996636554686753051,0.017978078070668257471,0.12173435028901030686,1.000011517821696394,0.16177849629098328688,0.51925510737359203972,0.12157943571257984194,31,31,-0.012118004262447357178,0,0
3.0134623291109558805e-06,2.9996514004447552004,0.017978203917941155271,0.12173849090626970293,1.0000116684194642058,0.16177852798446118454,0.51925484396357524108,0.12158026846403609256,32,32,-0.012085252441465854645,0,0
3.0138891049592232315e-06,2.9996408421857267967,0.017978334220445129493,0.12174280092270714504,1.0000124689059506355,0.16177875230322114053,0.51925510737932023542,0.12158105233117696975,33,33,-0.012052501551806926727,0,0
3.0143330715540136412e-06,2.9996280802888315442,0.017978465757101148165,0.12174728406304745343,1.0000126406368201604,0.16177878967649964026,0.5192548439587078013,0.12158192098748703269,34,34,-0.012019749730825424194,0,0
3.014794617321386513e-06,2.9996169959244909364,0.017978601965968853821,0.12175194419151731673,1.0000134630854480289,0.16177901989982923503,0.51925510738533142696,0.12158274212495082112,35,35,-0.011986998841166496277,0,0
3.01527414991303025e-06,2.9996036818388529532,0.017978739701219839664,0.12175678536236084204,1.0000136578396159326,0.16177906346168066665,0.51925484395364418511,0.12158364989972332559,36,36,-0.011954247020184993744,0,0
3.0157720918553098088e-06,2.9995920251393175526,0.017978882335987881463,0.12176181177563299984,1.000014504179964181,0.1617793001090320204,0.51925510739163982521,0.12158451158609004383,37,37,-0.011921496130526065826,0,0
3.0162888856267341276e-06,2.9995781116524740106,0.017979026800388014928,0.12176702782816578585,1.0000147239269057131,0.16177935038953622504,0.51925484394835708102,0.12158546182759012722,38,38,-0.011888744309544563293,0,0
3.0168249893245605557e-06,2.9995658343998345963,0.017979176402967898124,0.12177243806951307259,1.0000155961719037201,0.16177959400272978741,0.51925510739829394691,0.12158636748257789506,39,39,-0.011855993419885635376,0,0
3.0173808817927357037e-06,2.9995512722194637156,0.017979328150477254938,0.12177804725337512681,1.000015842968088986,0.16177965155532483821,0.51925484394284404654,0.12158736368673954409,40,40,-0.011823241598904132843,0,0
3.0179570583072764765e-06,2.9995383240244515299,0.017979485287222991829,0.12178386029370351362,1.0000167432214333019,0.16177990270061778921,0.51925510740530311793,0.1215883168842803036,41,41,-0.011790490709245204926,0,0
3.0185540357561425133e-06,2.9995230615902115368,0.017979644897331129028,0.12178988231659276797,1.0000170192181858653,0.16177996810423350693,0.51925484393707721509,0.12158936270810671854,42,42,-0.011757738888263702393,0,0
3.0191723483447541584e-06,2.9995093896973963332,0.017979810161236422367,0.12179611861655481597,1.0000179496827197312,0.16178022737451455693,0.51925510741270497483,0.12159036719018032069,43,43,-0.011724987998604774475,0,0
3.0198125528293863719e-06,2.9994933729841135595,0.017979978241182369841,0.121802574708887279,1.0000182571344349292,0.16178030123578665544,0.51925484393104082148,0.12159146646575169637,44,44,-0.011692236177623271942,0,0
3.0204752242443423683e-06,2.9994789220708297783,0.017980152254149610325,0.12180925628612790379,1.0000192201205393427,0.16178056925284300949,0.51925510742053826441,0.12159252615670358699,45,45,-0.011659485287964344025,0,0
3.0211609611905791581e-06,2.9994620943827103865,0.017980329441244159022,0.12181616927090935243,1.0000195613932851835,0.16178065220843051986,0.51925484392470655504,0.12159368290582940608,46,46,-0.011626733466982841492,0,0
3.0218703815861991556e-06,2.9994468063507655486,0.017980512856437112779,0.12182331977260486833,1.0000205593275868221,0.16178092962530843391,0.51925510742883862481,0.12159480192721472402,47,47,-0.011593982577323913574,0,0
3.0226041280121864941e-06,2.9994291081058501724,0.017980699820496683777,0.12183071414068023797,1.0000209369083026267,0.16178102234432578665,0.51925484391808285345,0.12159602037676699171,48,48,-0.011561230756342411041,0,0
3.0233628634880254422e-06,2.9994129218612810561,0.017980893324826167229,0.12183835892154269709,1.0000219723427623553,0.16178130984780039747,0.51925510743761249532,0.12159720306304680482,49,49,-0.011528479866683483124,0,0
3.0241472768765672421e-06,2.9993942903687860202,0.017981090770689260594,0.12184626091240124968,1.0000223888484576218,0.16178141303433979381,0.51925484391112419758,0.12159848766085058769,50,50,-0.011495728045701980591,0,0
3.0249580786867590861e-06,2.9993771415909002975,0.017981295087424777057,0.12185442711833151253,1.0000234644703556164,0.16178171134754093519,0.51925510744691605325,0.12159973857582977164,51,51,-0.011462977156043052673,0,0
3.0257960065398280932e-06,2.9993575108142094265,0.017981503757628945067,0.12186286480665622922,1.0000239226580840413,0.16178182574333396793,0.51925484390381504429,0.12160109400754405551,52,52,-0.01143022533506155014,0,0
3.0266618210012439339e-06,2.9993393317153675959,0.017981719649113658832,0.12187158146423934801,1.000025041299934303,0.16178213562845328299,0.5192551074567782754,0.12160241796151526061,53,53,-0.011397474445402622223,0,0
3.0275563111105962963e-06,2.999318632026149789,0.017981940326677756103,0.12188058485239917916,1.0000255440770835502,0.1617822620156646185,0.5192548438961255286,0.12160384916818574308,54,54,-0.01136472262442111969,0,0
3.028480290245082383e-06,2.9992993510967695947,0.017982168597213209205,0.12188988296444555615,1.0000267087275658273,0.16178258427684277798,0.51925510746727709943,0.12160525123609636222,55,55,-0.011331971734762191772,0,0
3.0294346017156261652e-06,2.999277509012583387,0.017982402108603193908,0.12189948408113840395,1.0000272591629897345,0.16178272348101138678,0.51925484388805986935,0.12160676343284582135,56,56,-0.01129921991378068924,0,0
3.0304201146643755235e-06,2.9992570507576914451,0.017982643607431233329,0.12190939672848266628,1.0000284729775867909,0.16178305896731937086,0.51925510747841174819,0.12160824897315612725,57,57,-0.011266469024121761322,0,0
3.0314377297298030178e-06,2.9992339886699959095,0.017982890825642004057,0.12191962973374570467,1.0000290743130590965,0.16178321186045913072,0.51925484387958298349,0.12160984766861862583,58,58,-0.011233717203140258789,0,0
3.0324883749808664255e-06,2.9992122733250057287,0.017983146450162534186,0.12193019218352449395,1.000030340626422154,0.1617835614691105206,0.51925510749024095247,0.12161142234354302416,59,59,-0.011200966313481330872,0,0
3.033573011654018374e-06,2.9991879092110282912,0.017983408297980806034,0.12194109348033568829,1.0000309962886446691,0.16178372897296278143,0.51925484387067311065,0.12161311336045294018,60,60,-0.011168214492499828339,0,0
3.0346926301269169645e-06,2.9991648524465865933,0.017983678997096436136,0.12195234330097076692,1.0000323186269275411,0.16178409365265766784,0.51925510750281422823,0.12161478315706115982,61,61,-0.011135463602840900421,0,0
3.0358482557304749003e-06,2.9991390995656255214,0.01798395645054281719,0.12196395165367222846,1.0000330322403063743,0.16178427674212902954,0.5192548438612902828,0.1216165726539587405,62,62,-0.011102711781859397888,0,0
3.0370409447651813734e-06,2.9991146121755387632,0.017984243228198807524,0.12197592883679256315,1.000034414334423527,0.16178465749660408957,0.5192551075162129548,0.12161834390648275372,63,63,-0.011069960892200469971,0,0
3.0382717903915606098e-06,2.9990873787459317867,0.017984537320190077669,0.12198828549657071696,1.0000351897348052077,0.16178485720341415077,0.51925484385143461097,0.12162023840078937942,64,64,-0.011037209071218967438,0,0
3.0395419186924152234e-06,2.9990613663189575888,0.017984841239097493215,0.12200103258611087742,1.0000366355339622704,0.16178525509515553904,0.51925510753046300039,0.12162211781413381773,65,65,-0.01100445818156003952,0,0
3.0408524946452419748e-06,2.999032555181355697,0.017985153063270840207,0.12201418142377290499,1.0000374767828230649,0.16178547251167441079,0.51925484384107434277,0.12162412420626482479,66,66,-0.010971706360578536987,0,0
3.0422047182339600613e-06,2.9990049177505673228,0.017985475248887886762,0.12202774365248748867,1.0000389904696695975,0.16178588866589910245,0.51925510754565462612,0.12162611888106292235,67,67,-0.01093895547091960907,0,0
3.043599830507102514e-06,2.9989744260089725714,0.01798580596367651066,0.12204173129877438075,1.0000399018692032183,0.16178612494920549536,0.51925484383019659962,0.12162824448012785061,68,68,-0.010906203649938106537,0,0
3.0450391097427745788e-06,2.9989450576848661889,0.017986147608378189044,0.1220561567324097707,1.0000414878751484604,0.16178656055803022906,0.51925510756185244698,0.12163036193904783189,69,69,-0.010873452760279178619,0,0
3.0465238775967453793e-06,2.9989127763295146956,0.017986498441299257622,0.12207103272608622879,1.0000424739841458077,0.1617868169342012441,0.51925484381875530726,0.12163261448988689495,70,70,-0.010840700939297676086,0,0
3.048055495324667419e-06,2.9988815649107194439,0.017986860808805391065,0.122086372415448563,1.0000441370059403035,0.16178727326107322781,0.51925510757912940463,0.12163486270552786861,71,71,-0.010807949118316173553,0,0
3.0496353700243879541e-06,2.9988473784157183566,0.017987233061036965454,0.12210218935940822527,1.0000452026569541797,0.16178755102975039826,0.51925484380673536666,0.12163725041754225309,72,72,-0.010775198228657245636,0,0
3.0512649509197376265e-06,2.9988142049772692488,0.017987617491099023442,0.12211849750056334718,1.0000469476740934116,0.16178802941413186756,0.51925510759758453094,0.12163963784197595608,73,73,-0.010742446407675743103,0,0
3.0529457357017430976e-06,2.9987779908780569649,0.017988012542291736962,0.12213531122618070945,1.0000480979911758883,0.16178832995332545486,0.51925484379409936331,0.12164216941947159079,74,74,-0.010709695518016815186,0,0
3.0546792668785520141e-06,2.9987427293362287628,0.017988420455651681074,0.12215264532901484729,1.0000499302842844607,0.16178883181565453797,0.51925510761728999043,0.12164470501549964898,75,75,-0.010676943697035312653,0,0
3.0564671382204681637e-06,2.9987043577816003825,0.017988839769036289035,0.12217051506896908775,1.0000511707020882657,0.16178915658685422141,0.51925484378082298331,0.1216473896898608853,76,76,-0.010644192807376384735,0,0
3.0583109911809497051e-06,2.9986668744312789947,0.017989272672702050909,0.12218893613432871281,1.0000530958726583375,0.16178968343381239237,0.51925510763835303063,0.12165008296424316414,77,77,-0.010611440986394882202,0,0
3.0602125214507099807e-06,2.9986262077074594679,0.017989717800518542634,0.12220792470411137587,1.0000544321566435801,0.16179003398740038344,0.51925484376689678978,0.12165293052814066255,78,78,-0.010578690096735954285,0,0
3.0621734754549906391e-06,2.9985863607357980953,0.017990177293317734242,0.12222749740972772836,1.000056456147473849,0.16179058741746901728,0.51925510766085181125,0.12165579156661378291,79,79,-0.010545938275754451752,0,0
3.0641956570223727319e-06,2.9985432527646627143,0.01799064988254822639,0.12224767139803088822,1.000057894415203652,0.16179096539845466696,0.51925484375228503353,0.12165881241012793668,80,80,-0.010513187386095523834,0,0
3.0662809239638626316e-06,2.9985008917316888777,0.017991137661064266623,0.12226846429341667322,1.000060023532760578,0.16179154710784729443,0.51925510768491078828,0.12166185191476917848,81,81,-0.010480435565114021301,0,0
3.068431194862361277e-06,2.9984551875383709252,0.017991639459520886862,0.12228989426157936549,1.0000615702764903414,0.16179195426194378782,0.51925484373696928486,0.12166505706374948492,82,82,-0.010447684675455093384,0,0
3.0706484457395056694e-06,2.9984101528298254813,0.017992157324354815517,0.12231197997206261219,1.000063811214034537,0.16179256605086644871,0.51925510771063310145,0.12166828639244219035,83,83,-0.010414932854473590851,0,0
3.0729347169721265677e-06,2.9983616879791794574,0.017992690187132773239,0.12233474066272695402,1.0000654733247367201,0.16179300423094056249,0.51925484372091579299,0.12167168754915323736,84,84,-0.010382181964814662933,0,0
3.0752921100531610405e-06,2.9983138102252930857,0.017993240049563447719,0.12235819610276027491,1.0000678331873256166,0.16179364801025478138,0.51925510773817784571,0.1216751187575092763,85,85,-0.0103494301438331604,0,0
3.0777227946418287115e-06,2.9982624102232935392,0.017993805945902368454,0.12238236665786007829,1.0000696179801611407,0.16179411918317010421,0.51925484370410512902,0.12167872834385240477,86,86,-0.010316679254174232483,0,0
3.0802290054253251386e-06,2.9982115096847707925,0.017994389834931952959,0.12240727325371000833,1.0000721043106999275,0.16179479698143880984,0.51925510776768535326,0.12168237422960261063,87,87,-0.01028392743319272995,0,0
3.0828130493099074954e-06,2.9981569893446513575,0.017994990855493237653,0.12243293744187738747,1.0000740195522646037,0.16179530323532806402,0.51925484368654117873,0.12168620543292428537,88,88,-0.010251176543533802032,0,0
3.0854773023904919017e-06,2.9981028752609129029,0.017995610925334647873,0.12245938136375955629,1.0000766403592877829,0.16179601720629166461,0.51925510779928496508,0.12169007958307584416,89,89,-0.0102184247225522995,0,0
3.0882242172902616732e-06,2.9980450380331515881,0.017996249289906108421,0.12248662781719350801,1.0000786942961932269,0.16179656075825987749,0.51925484366819907311,0.12169414640469132516,90,90,-0.010185673832893371582,0,0
