"epsilon","mach_number","pressure","rad_temp","rho","rhoE","rhou","temperature","GlobalNodeId","PedigreeNodeId","Points:0","Points:1","Points:2"
1.6531040140613768668e-05,2.9999332845290274108,0.099160876039486062217,0.18631015076164456068,5.5165845916238360758,0.89244787494664057359,2.8645139886229387116,0.18629824170842618214,1,1,-0.016003377735614776611,0,0
1.6531049861425509671e-05,2.9999322212678420918,0.099160943410959767608,0.18631017815080891387,5.5165848959812127106,0.89244795410533606095,2.8645140254695347082,0.18629835800407926194,2,2,-0.015939364209771156311,0,0
1.653107678551469191e-05,2.9999311167547175749,0.099161010387276718459,0.18631025401151998788,5.5165850899440709298,0.89244800928827261455,2.8645139886228001558,0.18629847728541068519,3,3,-0.015875350683927536011,0,0
1.6531120854675782842e-05,2.999930061073203813,0.099161077279806913998,0.18631037817960194314,5.5165853925680883307,0.89244808796239571969,2.8645140254697007975,0.18629859273976315248,4,4,-0.01581133715808391571,0,0
1.6531182083025741886e-05,2.9999289550249375047,0.09916114434210057671,0.18631055069454047213,5.5165855868918152183,0.89244814322548071672,2.8645139886226327341,0.18629871217041726883,5,5,-0.01574732363224029541,0,0
1.6531260552824139832e-05,2.999927889221289945,0.0991612118528270442,0.18631077178770330538,5.5165858918517773901,0.8924482225121743717,2.8645140254698908677,0.18629882870729438937,6,6,-0.01568331010639667511,0,0
1.6531356417692727689e-05,2.9999267640594111661,0.099161280090521650155,0.18631104189140709759,5.5165860905771495482,0.89244827894479050734,2.8645139886224786352,0.18629895019756373409,7,7,-0.015619297511875629425,0,0
1.653146989899085734e-05,2.9999256706082748636,0.099161349305497983875,0.18631136162869799122,5.516586401901506953,0.89244835992996041085,2.8645140254699250626,0.1862990697213408875,8,8,-0.015555283986032009125,0,0
1.653160128963041968e-05,2.9999245087851829084,0.099161419805967709884,0.18631173182409124789,5.51658660906314946,0.89244841861938750682,2.864513988622432894,0.18629919517787266181,9,9,-0.015491270460188388824,0,0
1.6531750950994362473e-05,2.9999233700486951371,0.099161491818089364525,0.18631215349487728616,5.5165869308068931076,0.8924485023957728913,2.8645140254701835225,0.18629931960488158027,10,10,-0.015427256934344768524,0,0
1.6531919317339899647e-05,2.9999221537621276745,0.099161565684330404968,0.18631262786351351912,5.5165871504965977579,0.89244856444466491574,2.8645139886221970826,0.18629945096174080343,11,11,-0.015363243408501148224,0,0
1.6532106893257307421e-05,2.9999209517051221852,0.099161641610969394889,0.1863131563504473176,5.5165874868062267922,0.89244865212934809673,2.8645140254702985416,0.18629958225120651916,12,12,-0.015299229882657527924,0,0
1.6532314258663586719e-05,2.9999196626132493826,0.099161719979298484917,0.18631374058816554951,5.516587723241466179,0.89244871867376474039,2.8645139886221118175,0.18629972150081311466,13,13,-0.015235216356813907623,0,0
1.6532542066808073267e-05,2.9999183785181182671,0.099161800979974776271,0.18631438241555209334,5.5165880784201002385,0.89244881142585164024,2.8645140254704486438,0.18629986168585499495,14,14,-0.015171202830970287323,0,0
1.6532791049867852546e-05,2.9999169974514332537,0.099161885037849270552,0.18631508389362552713,5.5165883360082652587,0.89244888365281482834,2.864513988622074514,0.18630001091029352311,15,15,-0.015107189305126667023,0,0
1.6533062017515755726e-05,2.9999156116263421268,0.099161972332319742174,0.18631584730147376927,5.5165887145836869365,0.89244898269159356197,2.8645140254707497363,0.18630016212961150734,16,16,-0.015043175779283046722,0,0
1.6533355863138154089e-05,2.9999141182925943561,0.099162063336619490905,0.18631667515373678823,5.5165889979896149953,0.89244906185735783932,2.8645139886218258241,0.18630032353269729284,17,17,-0.014979162253439426422,0,0
1.6533673562990179194e-05,2.9999126097703880944,0.099162158223530652568,0.18631757019818639964,5.5165894047828611946,0.89244916848092581407,2.8645140254709593464,0.18630048806329896349,18,18,-0.014915148727595806122,0,0
1.6534016183065698789e-05,2.9999109824450882478,0.099162257519757740498,0.18631853543503570925,5.5165897190024910657,0.89244925593037038869,2.8645139886217534375,0.18630066400416159245,19,19,-0.014851135201752185822,0,0
1.6534384878874096525e-05,2.9999093286670719394,0.099162361396225265353,0.1863195741162588237,5.5165901592002652976,0.89244937153511605388,2.8645140254712400107,0.18630084429570087368,20,20,-0.014787121675908565521,0,0
1.6534780903002033235e-05,2.9999075438693534323,0.099162470438562314023,0.18632068976683585637,5.5165905096319134415,0.89244946872161290408,2.8645139886214741054,0.18630103732406094741,21,21,-0.014723108150064945221,0,0
1.6535205605555845462e-05,2.99990572034823888,0.099162584821066629415,0.1863218861859335107,5.5165909888654587334,0.89244959482321972732,2.8645140254715468764,0.18630123603543141675,22,22,-0.014659094624221324921,0,0
1.6535660442464660463e-05,2.9999037524923068965,0.099162705193987024654,0.18632316747022203973,5.516591381392745852,0.89244970333037620946,2.8645139886213732971,0.18630144892939920487,23,23,-0.01459508109837770462,0,0
1.6536146976643043802e-05,2.9999017324522632144,0.099162831740656792734,0.18632453801706674867,5.5165919058186831947,0.89244984158597961965,2.8645140254718928219,0.18630166896786787278,24,24,-0.01453106757253408432,0,0
1.6536666887095685343e-05,2.9998995534715353628,0.099162965182188186897,0.18632600255008197054,5.5165923468954556341,0.89244996315072766535,2.864513988621203211,0.18630190477478059119,25,25,-0.01446705404669046402,0,0
1.6537221970865886741e-05,2.9998973074569099673,0.099163105717050448185,0.18632756612451362166,5.5165929232871704357,0.89245011538324159339,2.8645140254721765949,0.1863021493384602878,26,26,-0.014403040520846843719,0,0
1.6537814153013633277e-05,2.9998948863962668909,0.099163254144059367889,0.18632923415522686938,5.5165934200321258274,0.89245025192131410829,2.8645139886211925528,0.18630241141918810199,27,27,-0.014339026995003223419,0,0
1.6538445489427377322e-05,2.9998923818441918243,0.099163410683509117804,0.18633101242449151558,5.5165940558775830027,0.89245042014583408907,2.8645140254725536266,0.18630268404346214672,28,28,-0.014275013469159603119,0,0
1.6539118177759663982e-05,2.9998896844122455718,0.099163576219406246448,0.18633290711263339468,5.5165946161761310051,0.89245057377920689046,2.8645139886210859714,0.18630297612101773264,29,29,-0.014210999943315982819,0,0
1.6539834561192670272e-05,2.9998868851831574922,0.099163751001305283639,0.18633492480846969297,5.5165953197867576563,0.89245076023221381334,2.8645140254731460416,0.18630328072952989649,30,30,-0.014146986417472362518,0,0
1.6540597140429101679e-05,2.9998838732594896861,0.099163936006585934324,0.18633707254289008648,5.5165959524047893936,0.89245093331974012507,2.8645139886209025626,0.18630360694260150733,31,31,-0.014082972891628742218,0,0
1.6541408578516078668e-05,2.9998807391185042803,0.099164131522375645322,0.18633935780222657397,5.5165967330340039965,0.89245114049105911391,2.8645140254739014374,0.18630394790358212331,32,32,-0.014018959365785121918,0,0
1.6542271714003895173e-05,2.9998773702079448711,0.099164338628434905987,0.18634178856507019328,5.5165974477436474643,0.89245133566231349409,2.8645139886206312241,0.18630431286581367045,33,33,-0.013954945839941501617,0,0
1.654318956694847352e-05,2.9998738562506539473,0.099164557658710225652,0.18634437331890107981,5.5165983157185909391,0.89245156633066480278,2.8645140254746386255,0.18630469505446184408,34,34,-0.013890932314097881317,0,0
1.6544165353366893092e-05,2.999870082875914612,0.099164789805476841189,0.18634712110048931577,5.5165991234396685172,0.89245178652358481131,2.8645139886206325563,0.18630510392037627487,35,35,-0.013826918788254261017,0,0
1.6545202492555927777e-05,2.9998661388884868551,0.099165035459634509607,0.18635004151615658374,5.5166000903082235141,0.89245204379621589919,2.8645140254755054876,0.18630553278837932996,36,36,-0.013762905262410640717,0,0
1.6546304622991538796e-05,2.9998619079164314805,0.099165295937296990547,0.18635314478615710998,5.516601003260251268,0.89245229229865163934,2.8645139886205353008,0.18630599132663308581,37,37,-0.013698891736567020416,0,0
1.6547475611120006047e-05,2.9998574776608362136,0.099165571697831411679,0.18635644176899124336,5.5166020819573438061,0.89245257965565039093,2.864514025476473158,0.18630647297976529742,38,38,-0.013634878210723400116,0,0
1.6548719568868772357e-05,2.9998527295473356169,0.099165864193653238678,0.18635994401021463429,5.5166031138352566998,0.89245286015232305754,2.864513988620610796,0.1863069876551612658,39,39,-0.013570864684879779816,0,0
1.6550040864088174378e-05,2.9998477499651365896,0.099166173965498177756,0.18636366377127910887,5.5166043188646343154,0.89245318149594010659,2.8645140254777956557,0.18630752893983817953,40,40,-0.013506851159036159515,0,0
1.6551444139863478691e-05,2.9998424179108909016,0.099166502616103061052,0.18636761408327526257,5.5166054850324712788,0.89245349812044472149,2.8645139886208004221,0.18630810700500707866,41,41,-0.013442837633192539215,0,0
1.6552934326809009375e-05,2.9998368182298622564,0.099166850781994456132,0.18637180878083578484,5.5166068326725561377,0.89245385783036978999,2.8645140254793592938,0.18630871560533698861,42,42,-0.013378824107348918915,0,0
1.6554516664396447793e-05,2.9998308272356752902,0.099167220231948155496,0.18637626256137984626,5.5166081503808230835,0.89245421522393941771,2.8645139886210513325,0.18630936520344687501,43,43,-0.013314810581505298615,0,0
1.6556196715329727086e-05,2.9998245279681094999,0.099167611714509162901,0.18638099102468033696,5.5166096589157342933,0.89245461821931004742,2.8645140254811018998,0.18631004975005910351,44,44,-0.013250797055661678314,0,0
1.6557980389132890598e-05,2.9998177937745982291,0.099168027182037959966,0.18638601073824767607,5.5166111475459524982,0.89245502159642298157,2.86451398862134754,0.18631078003001158572,45,45,-0.013186783529818058014,0,0
1.655987395886398316e-05,2.999810705595239213,0.099168467513356950427,0.18639133928323539657,5.5166128375240646164,0.89245547340548803117,2.864514025483283266,0.18631155022202894322,46,46,-0.013122770003974437714,0,0
1.6561884087237320175e-05,2.9998031334921981816,0.09916893486415788439,0.18639699532667719506,5.5166145188632045304,0.89245592862756439878,2.8645139886219452841,0.18631237146784504488,47,47,-0.013058756478130817413,0,0
1.656401784596806334e-05,2.9997951559764910456,0.099169430264012328746,0.18640299867448534288,5.516616413387051665,0.8924564354657713583,2.8645140254861076734,0.18631323821003722974,48,48,-0.012994742952287197113,0,0
1.6566282744739185514e-05,2.9997866394673340373,0.099169956094074571129,0.18640937035133886557,5.516618311933998875,0.89245694912395956422,2.8645139886227810599,0.18631416198608644064,49,49,-0.012930729426443576813,0,0
1.6568686753505962409e-05,2.9997776596746952293,0.099170513557774273017,0.1864161326616168568,5.5166204369866056467,0.89245751798159678181,2.8645140254891963139,0.18631513754286035955,50,50,-0.012866715900599956512,0,0
1.6571238334657739064e-05,2.9997680789738963014,0.099171105286595298556,0.18642330927782768679,5.5166225803003099415,0.89245809749010407419,2.8645139886240462701,0.18631617685720552879,51,51,-0.012802702374756336212,0,0
1.6573946468653700474e-05,2.9997579698557235162,0.099171732683764390881,0.18643092531041527415,5.5166249651130367937,0.89245873623125537843,2.8645140254931233947,0.18631727502573808275,52,52,-0.012738688848912715912,0,0
1.6576820689774278986e-05,2.9997471902002494915,0.099172398659072541482,0.18643900740571972552,5.5166273842001158911,0.89245938993173967724,2.8645139886260198026,0.1863184445137580636,53,53,-0.012674675323069095612,0,0
1.6579871115506882094e-05,2.9997358088088130756,0.099173104844758108722,0.18644758382569945332,5.5166300616643697552,0.8924601074051399241,2.8645140254979475358,0.18631968081879801691,54,54,-0.012610661797225475311,0,0
1.6583108486331992197e-05,2.999723678560018314,0.099173854460301996694,0.18645668455652272821,5.516632791416459014,0.89246084468444375482,2.8645139886284600728,0.18632099694967016457,55,55,-0.012546648271381855011,0,0
1.6586544199330974166e-05,2.9997108640356993092,0.099174649399909622915,0.18646634139936288377,5.5166357985490988014,0.89246165084846240667,2.8645140255037984112,0.18632238886249355425,56,56,-0.012482634745538234711,0,0
1.6590190352508304197e-05,2.9996972125433445377,0.099175493228060976336,0.18647658809083828002,5.5166388782366668764,0.89246248227125835051,2.864513988631771646,0.18632387017158830167,57,57,-0.01241862121969461441,0,0
1.6594059783153315913e-05,2.9996827838492774454,0.099176388137989110461,0.18648746040616084874,5.5166422567018953416,0.89246338833438931815,2.8645140255112186978,0.1863254373565266242,58,58,-0.01235460769385099411,0,0
1.6598166117263671592e-05,2.9996674190498642254,0.099177338078853788383,0.1864989962927700029,5.5166457305270295564,0.89246432579204482138,2.8645139886361934423,0.18632710470681004833,59,59,-0.01229059416800737381,0,0
1.6602523813260332774e-05,2.9996511724249041997,0.099178345584658184064,0.18651123598724678176,5.5166495272230662295,0.89246534437080382585,2.8645140255200431945,0.18632886929850861479,60,60,-0.01222658064216375351,0,0
1.6607148217148727645e-05,2.9996338781393698802,0.099179415033963921888,0.18652422216362377072,5.5166534449451249955,0.89246640124937270944,2.8645139886421828734,0.18633074617474201795,61,61,-0.012162567116320133209,0,0
1.6612055612261963651e-05,2.9996155842309892847,0.099180549348522814568,0.18653800006561827018,5.5166577126677660559,0.8924675465465907731,2.8645140255312351307,0.18633273309037642895,62,62,-0.012098553590476512909,0,0
1.6617263280876562117e-05,2.9995961171241027898,0.099181753386528209715,0.18655261767124500794,5.5166621303029401702,0.8924687379152222988,2.8645139886500197157,0.18633484593028917797,63,63,-0.012034540064632892609,0,0
1.662278956074418932e-05,2.9995755177640082145,0.099183030510443415118,0.18656812584207063677,5.516666928489542876,0.89247002592013213729,2.8645140255450933786,0.18633708322081432573,64,64,-0.011970526538789272308,0,0
1.6628653913969275609e-05,2.9995536039240677795,0.099184386114621270192,0.18658457850590856597,5.5166719091021896304,0.89247136874384236371,2.8645139886600654577,0.18633946178781268799,65,65,-0.011906513012945652008,0,0
1.6634876991185442444e-05,2.9995304085001692762,0.09918582406185902367,0.18660203282495227417,5.5166773046705097627,0.8924728174576628259,2.8645140255623107173,0.18634198103339277841,66,66,-0.011842499487102031708,0,0
1.664148070860407567e-05,2.9995057395905737607,0.099187350346308669757,0.18662054939848943258,5.5166829192640536306,0.89247433083666316556,2.8645139886735795365,0.18634465883608455905,67,67,-0.011778485961258411407,0,0
1.6648488320799490592e-05,2.9994796209644452034,0.099188969398210008466,0.18664019245193122498,5.5166889875541187394,0.89247596052619049267,2.8645140255835013221,0.18634749559129892837,68,68,-0.011714472435414791107,0,0
1.6655924506951976747e-05,2.9994518498934348294,0.099190687883165526428,0.18666103006164352918,5.5166953160710106019,0.89247766596495237135,2.8645139886908626004,0.18635051035582808621,69,69,-0.011650458909571170807,0,0
1.6663815453327251667e-05,2.9994224398080859828,0.099192510874439726587,0.18668313436705058495,5.5167021419118889014,0.8924794994487645905,2.8645140256101568887,0.18635370465069156509,70,70,-0.011586445383727550507,0,0
1.6672188949866321425e-05,2.9993911758581295324,0.099194445789666366164,0.18670658181984101098,5.5167092743608607819,0.89248142115930262364,2.8645139887132318179,0.18635709885237866645,71,71,-0.011522431857883930206,0,0
1.668107448358128496e-05,2.9993580597709774693,0.099196498430310753314,0.1867314534214820354,5.516716953263831158,0.89248348412906619576,2.8645140256432179982,0.18636069575651934005,72,72,-0.011458418332040309906,0,0
1.6690503346789298944e-05,2.9993228631181372279,0.099198677056759249071,0.18675783499921211339,5.5167249909919080508,0.8924856493724172557,2.864513988742174444,0.18636451721841101881,73,73,-0.011394405737519264221,0,0
1.6700508742800554738e-05,2.999285574389165987,0.099200988294530431655,0.18678581747145120429,5.5167336304995595597,0.89248797075530594824,2.8645140256846937099,0.18636856747607852269,74,74,-0.011330392211675643921,0,0
1.6711125907256669653e-05,2.9992459499395054401,0.099203441348874543682,0.18681549715313319759,5.5167426876187954932,0.8924904102256506766,2.8645139887793211741,0.1863728700427376983,75,75,-0.011266378685832023621,0,0
1.6722392227659575286e-05,2.9992039632935614257,0.099206043777387675764,0.1868469760516301148,5.5167524088224819678,0.89249302259221430234,2.8645140257370056425,0.18637743078773588712,76,76,-0.01120236515998840332,0,0
1.6734347379458114428e-05,2.9991593537490768284,0.099208805845072314811,0.1868803622040978718,5.516762613821438066,0.89249577084958164885,2.8645139888271184958,0.18638227508380453279,77,77,-0.01113835163414478302,0,0
1.6747033461161082014e-05,2.9991120779236632998,0.099211736163177410841,0.1869157700066374217,5.5167735530664350208,0.8924987108724981022,2.8645140258021779545,0.18638741064427841176,78,78,-0.01107433810830116272,0,0
1.6760495147022279669e-05,2.9990618559859223424,0.099214846185911864662,0.18695332058641520034,5.5167850506242128716,0.89250180683028568218,2.8645139888887998225,0.18639286492832649045,79,79,-0.011010324582457542419,0,0
1.6774779839699718799e-05,2.999008625461560662,0.099218145715069969159,0.18699314216684981282,5.5167973614360450441,0.89250511580158364833,2.8645140258841861325,0.1863986477328644642,80,80,-0.010946311056613922119,0,0
1.67899378416213837e-05,2.9989520850625370763,0.099221647539698212825,0.18703537047730803278,5.5168103144589819564,0.89250860327437675501,2.8645139889672570632,0.186404788858826026,81,81,-0.010882297530770301819,0,0
1.6806022527398876059e-05,2.9988921507666361777,0.09922536280633957595,0.18708014915711615456,5.5168241697096567222,0.89251232768752553071,2.8645140259871983979,0.18641130045631396084,82,82,-0.010818284004926681519,0,0
1.6823090536217311699e-05,2.998828497211995181,0.09922930580282939006,0.18712763020560641003,5.5168387616346175051,0.89251625600931705495,2.8645139890682655981,0.18641821495551666454,83,83,-0.010754270479083061218,0,0
1.6841201966488421581e-05,2.9987610160664628367,0.09923348919405548807,0.18717797442768568938,5.5168543559787659447,0.89252044821407616748,2.864514026116961265,0.1864255471633781136,84,84,-0.010690256953239440918,0,0
1.6860420591901527886e-05,2.9986893549536799419,0.099237928951228585039,0.18723135192689333017,5.5168707933565084289,0.89252487293285276415,2.86451398919689737,0.18643333246283988469,85,85,-0.010626243427395820618,0,0
1.6880814081112408004e-05,2.9986133781280459587,0.099242639453067188482,0.18728794259509232156,5.5168883459807984693,0.8925295918733890943,2.864514026280230663,0.18644158865942192516,86,86,-0.010562229901552200317,0,0
1.6902454240422570738e-05,2.9985327028937680538,0.099247638561946863178,0.18734793665097052018,5.516906861394206274,0.89253457553445858519,2.8645139893614595117,0.1864503544530316248,87,87,-0.010498216375708580017,0,0
1.6925417261650088912e-05,2.9984471626033952774,0.099252942590528470124,0.18741153517612046953,5.5169266191074317618,0.89253988757964175527,2.8645140264859851875,0.18645965103258974049,88,88,-0.010434202849864959717,0,0
1.6949783994775379967e-05,2.9983563405304578531,0.099258571526231922921,0.18747895070103823278,5.516947474450275557,0.89254550060648529808,2.8645139895711619893,0.18646952082472242895,89,89,-0.010370189324021339417,0,0
1.6975640227533730773e-05,2.998260035206600449,0.099264543863540069535,0.18755040778939321977,5.5169697151678818159,0.89255148048515453585,2.8645140267452546823,0.18647998883495578437,90,90,-0.010306175798177719116,0,0
