"epsilon","mach_number","pressure","rad_temp","rho","rhoE","rhou","temperature","GlobalNodeId","PedigreeNodeId","Points:0","Points:1","Points:2"
1.3720181206757798617e-06,2.9999431216989740356,0.0096485331898969652759,0.1000000167759476366,0.99999999999865973876,0.086836798706400084025,0.38043133131081002807,0.1000000000028387348,1,1,-0.023103788495063781738,0,0
1.3720181213092548389e-06,2.9999431199982300456,0.0096485332002612580332,0.10000001678749040335,1.0000000000808004774,0.086836798717627075583,0.38043133131508038991,0.10000000010204299072,2,2,-0.02307078242301940918,0,0
1.3720181229405068876e-06,2.9999431182780815774,0.0096485332105266125718,0.10000001681721398805,1.0000000001412037154,0.086836798727029457234,0.38043133131080991705,0.1000000002023955642,3,3,-0.023037778213620185852,0,0
1.3720181255654156161e-06,2.9999431165915764197,0.0096485332208044640584,0.10000001686504333964,1.0000000002227547036,0.086836798738169421186,0.38043133131508016787,0.10000000030076289237,4,4,-0.023004772141575813293,0,0
1.3720181291809979861e-06,2.9999431148818245241,0.0096485332310066469069,0.10000001693092408495,1.0000000002827298395,0.086836798747508839313,0.38043133131081180442,0.10000000040050355254,5,5,-0.022971767932176589966,0,0
1.3720181337853320798e-06,2.999943113202033107,0.0096485332412433750388,0.10000001701482119643,1.0000000003639915036,0.086836798758606545401,0.38043133131507811395,0.10000000049847360128,6,6,-0.022938761860132217407,0,0
1.3720181393776151217e-06,2.999943111495186443,0.009648533251427542784,0.10000001711672007465,1.0000000004238476237,0.08683679876792795016,0.38043133131081080522,0.10000000059803944297,7,7,-0.022905755788087844849,0,0
1.3720181459580895751e-06,2.9999431098146964736,0.0096485332616679624074,0.10000001723662511888,1.0000000005051450369,0.086836798779029097939,0.38043133131507839151,0.1000000006960441723,8,8,-0.022872751578688621521,0,0
1.3720181535281030693e-06,2.9999431081034058089,0.0096485332718784146827,0.10000001737456087891,1.0000000005651845658,0.086836798788376620695,0.38043133131081097176,0.1000000007958641024,9,9,-0.022839745506644248962,0,0
1.3720181620900378846e-06,2.9999431064148778248,0.009648533282166712674,0.10000001753057076448,1.0000000006468143798,0.086836798799524869685,0.3804313313150768372,0.10000000089433180861,10,10,-0.022806739434599876404,0,0
1.3720181716473734204e-06,2.9999431046917948152,0.0096485332924478410532,0.10000001770471819706,1.0000000007073577279,0.086836798808943488348,0.38043133131081346976,0.10000000099483387361,11,11,-0.022773735225200653076,0,0
1.3720181822046173745e-06,2.9999431029879617405,0.0096485333028278243844,0.10000001789708529154,1.0000000007896168164,0.086836798820182525827,0.38043133131507617106,0.10000000109418889782,12,12,-0.022740729153156280518,0,0
1.3720181937673701168e-06,2.999943101245813537,0.0096485333132234254311,0.10000001810777409128,1.0000000008509626337,0.086836798829715622361,0.38043133131081502407,0.10000000119579714741,13,13,-0.022707723081111907959,0,0
1.3720182063422594684e-06,2.9999430995194118488,0.0096485333237388663796,0.10000001833690537467,1.0000000009341449836,0.08683679884108896907,0.38043133131507222977,0.10000000129646376135,14,14,-0.022674718871712684631,0,0
1.3720182199370063465e-06,2.9999430977509278229,0.0096485333342928494144,0.10000001858461982085,1.0000000009966072412,0.086836798850780980152,0.38043133131081668941,0.10000000139960185663,15,15,-0.022641712799668312073,0,0
1.3720182345603622953e-06,2.9999430959946828956,0.0096485333449876833217,0.10000001885107689947,1.0000000010810292661,0.086836798862333156035,0.38043133131507250733,0.10000000150200380467,16,16,-0.022608706727623939514,0,0
1.3720182502221774612e-06,2.9999430941925666616,0.0096485333557438570512,0.10000001913645609197,1.0000000011448855197,0.086836798872226422796,0.38043133131081391385,0.10000000160709805741,17,17,-0.022575702518224716187,0,0
1.3720182669333402407e-06,2.9999430923991754483,0.0096485333666621979354,0.1000000194409557952,1.0000000012308558617,0.086836798884002211474,0.38043133131507078648,0.10000000171166166518,18,18,-0.022542696446180343628,0,0
1.3720182847058475852e-06,2.9999430905560053873,0.009648533377665451799,0.1000000197647945982,1.0000000012964460616,0.086836798894142780414,0.38043133131081785514,0.10000000181914334152,19,19,-0.0225096922367811203,0,0
1.3720183035527469783e-06,2.9999430887180822403,0.0096485333888517814394,0.1000000201082102691,1.0000000013842682556,0.086836798906186243863,0.38043133131507389511,0.10000000192629925067,20,20,-0.022476686164736747742,0,0
1.3720183234882088577e-06,2.999943086826464711,0.0096485334001464688469,0.10000002047146100415,1.0000000014518566349,0.086836798916616678157,0.38043133131081391385,0.10000000203660158737,21,21,-0.022443680092692375183,0,0
1.3720183445274702874e-06,2.9999430849364649987,0.0096485334116464278181,0.10000002085482441461,1.0000000015418712973,0.086836798928974778811,0.38043133131507744782,0.10000000214678879396,22,22,-0.022410675883293151855,0,0
1.3720183666869122493e-06,2.9999430829888469319,0.0096485334232780956693,0.10000002125859902558,1.0000000016117773782,0.086836798939740722503,0.38043133131081158238,0.10000000226035193895,23,23,-0.022377669811248779297,0,0
1.3720183899840022569e-06,2.9999430810391158886,0.009648533435137876188,0.10000002168310308248,1.0000000017043133571,0.086836798952459950951,0.38043133131508521938,0.10000000237401630854,24,24,-0.022344663739204406738,0,0
1.3720184144373752466e-06,2.9999430790277594738,0.0096485334471530254802,0.10000002212867616092,1.0000000017768362337,0.086836798963606728896,0.38043133131080614229,0.10000000249129227525,25,25,-0.022311659529805183411,0,0
1.3720184400667789448e-06,2.9999430770105219857,0.0096485334594194806929,0.10000002259567808416,1.0000000018722086104,0.086836798976733839406,0.38043133131508799494,0.10000000260888787518,26,26,-0.022278653457760810852,0,0
1.3720184668931570879e-06,2.9999430749275264318,0.0096485334718658857106,0.10000002308449046362,1.0000000019477019997,0.086836798988310440195,0.38043133131080336673,0.10000000273033643472,27,27,-0.022245647385716438293,0,0
1.3720184949385969072e-06,2.999943072834688973,0.0096485334845877197135,0.10000002359551575515,1.0000000020462491701,0.086836799001893449912,0.38043133131509199174,0.10000000285233423547,28,28,-0.022212643176317214966,0,0
1.3720185242264140433e-06,2.9999430706719465434,0.0096485334975142302699,0.10000002412917882721,1.0000000021250394777,0.086836799013948501313,0.38043133131079914788,0.10000000297842903674,29,29,-0.022179637104272842407,0,0
1.3720185547811032068e-06,2.9999430684952934634,0.0096485335107408722738,0.1000000246859259756,1.0000000022270845168,0.08683679902803607964,0.38043133131508899414,0.10000000310530902936,30,30,-0.022146631032228469849,0,0
1.3720185866284258459e-06,2.9999430662444481754,0.0096485335241980902526,0.10000002526622663035,1.0000000023095569901,0.086836799040622053569,0.38043133131079964748,0.10000000323653601697,31,31,-0.022113626822829246521,0,0
1.3720186197953618658e-06,2.9999430639754445238,0.0096485335379808793987,0.10000002587057237047,1.0000000024154427347,0.086836799055264687897,0.38043133131508627409,0.10000000336879598384,32,32,-0.022080620750784873962,0,0
1.3720186543102008965e-06,2.9999430616278175421,0.0096485335520210650795,0.10000002649947870026,1.0000000025019486483,0.086836799068433459525,0.38043133131079748255,0.10000000350566166929,33,33,-0.022047614678740501404,0,0
1.3720186902024965527e-06,2.9999430592577005505,0.0096485335664128774741,0.10000002715348410565,1.0000000026120459129,0.086836799083684537703,0.38043133131508322098,0.10000000364381256279,34,34,-0.022014610469341278076,0,0
1.3720187275031593959e-06,2.9999430568042368961,0.0096485335810907093407,0.10000002783315183053,1.000000002702990054,0.086836799097491562671,0.380431331310802201,0.10000000378684315017,35,35,-0.021981604397296905518,0,0
1.3720187662444143713e-06,2.9999430543238685409,0.0096485335961465374527,0.1000000285390690441,1.0000000028176605493,0.086836799113405360728,0.38043133131508172218,0.10000000393141876553,36,36,-0.02194860018789768219,0,0
1.3720188064598965218e-06,2.9999430517552903019,0.0096485336115179360511,0.10000002927184861723,1.0000000029134228363,0.08683679912790656652,0.38043133131080725251,0.10000000408115584938,37,37,-0.021915594115853309631,0,0
1.3720188481846107546e-06,2.9999430491551350997,0.0096485336272952321873,0.10000003003212838693,1.0000000030330655765,0.086836799144540385842,0.38043133131508055644,0.10000000423271172834,38,38,-0.021882588043808937073,0,0
1.3720188914550300965e-06,2.999943046461729601,0.0096485336434187132099,0.10000003082057296044,1.0000000031340481321,0.086836799159794142433,0.38043133131081180442,0.10000000438972159178,39,39,-0.021849583834409713745,0,0
1.3720189363090582132e-06,2.9999430437318213016,0.0096485336599774953331,0.10000003163787295202,1.0000000032590796728,0.086836799177207615874,0.38043133131507822497,0.10000000454883811729,40,40,-0.021816577762365341187,0,0
1.3720189827861308411e-06,2.9999430409034042455,0.0096485336769143743157,0.1000000324847469535,1.0000000033657037157,0.08683679919327468022,0.38043133131081330323,0.10000000471371409128,41,41,-0.021783571690320968628,0,0
1.3720190309271810592e-06,2.9999430380334084489,0.009648533694316943285,0.10000003336194081272,1.0000000034965483842,0.086836799211530271703,0.38043133131507211875,0.10000000488099453078,42,42,-0.0217505674809217453,0,0
1.3720190807747436857e-06,2.9999430350593816463,0.0096485337121311482572,0.10000003427022957636,1.0000000036092631106,0.086836799228475008983,0.38043133131081358078,0.10000000505435428788,43,43,-0.021717561408877372742,0,0
1.3720191323729228791e-06,2.9999430320384852244,0.0096485337304427504918,0.10000003521041686549,1.0000000037463760982,0.086836799247638540855,0.38043133131506706723,0.10000000523042937295,44,44,-0.021684555336833000183,0,0
1.3720191857675005584e-06,2.9999430289076891576,0.0096485337492015679078,0.10000003618333688782,1.0000000038656577939,0.086836799265528522018,0.38043133131081785514,0.10000000541292264344,45,45,-0.021651551127433776855,0,0
1.3720192410059056984e-06,2.9999430257244554809,0.0096485337684911100936,0.10000003718985386869,1.0000000040095224918,0.086836799285668786474,0.38043133131506717826,0.1000000055984581887,46,46,-0.021618545055389404297,0,0
1.3720192981373276197e-06,2.9999430224252399135,0.0096485337882646644153,0.10000003823086409116,1.0000000041358350078,0.08683679930457340046,0.38043133131082135234,0.10000000579076537277,47,47,-0.021585538983345031738,0,0
1.3720193572126874021e-06,2.9999430190677065511,0.0096485338086043006406,0.10000003930729541024,1.0000000042869616745,0.086836799325763061597,0.38043133131507006484,0.10000000598645818195,48,48,-0.021552534773945808411,0,0
1.3720194182847547747e-06,2.9999430155878452631,0.0096485338294662065933,0.10000004042010934846,1.0000000044208026129,0.086836799345755458224,0.38043133131082434994,0.10000000618929251461,49,49,-0.021519528701901435852,0,0
1.3720194814081222815e-06,2.9999430120434489311,0.0096485338509315534544,0.10000004157030063789,1.000000004579702173,0.086836799368069317318,0.38043133131506806643,0.10000000639587521001,50,50,-0.021486522629857063293,0,0
1.3720195466393261954e-06,2.9999430083700304728,0.0096485338729595717527,0.10000004275889946836,1.0000000047216026644,0.086836799389226781987,0.38043133131082007559,0.10000000660998946411,51,51,-0.021453518420457839966,0,0
1.3720196140368249187e-06,2.9999430046255080029,0.0096485338956307335756,0.1000000439869710156,1.0000000048888555426,0.086836799412746426552,0.38043133131506784439,0.10000000682823421971,52,52,-0.021420512348413467407,0,0
1.3720196836611224383e-06,2.9999430007449778834,0.0096485339189065592869,0.10000004525561773105,1.0000000050393809126,0.0868367994351507827,0.38043133131081802167,0.10000000705441861037,53,53,-0.02138750813901424408,0,0
1.3720197555747507498e-06,2.9999429967863435742,0.009648533942867789856,0.10000004656597902275,1.0000000052155713082,0.086836799459960117842,0.38043133131506934319,0.10000000728514023274,54,54,-0.021354502066969871521,0,0
1.372019829842397336e-06,2.9999429926843830252,0.0096485339674778087399,0.10000004791923357284,1.0000000053753306251,0.086836799483698573487,0.38043133131082218501,0.10000000752422916195,55,55,-0.021321495994925498962,0,0
1.3720199065308907669e-06,2.9999429884969393001,0.0096485339928175286456,0.10000004931659910168,1.0000000055610549499,0.086836799509884904369,0.38043133131507134159,0.10000000776828442406,56,56,-0.021288491785526275635,0,0
1.3720199857093326257e-06,2.9999429841584319689,0.0096485340188526298039,0.10000005075933471321,1.0000000057306457357,0.086836799535046596543,0.38043133131081646736,0.1000000080211601583,57,57,-0.021255485713481903076,0,0
1.3720200674490886146e-06,2.9999429797266605746,0.009648534045664488093,0.10000005224874078391,1.0000000059265670149,0.086836799562704639066,0.38043133131506923217,0.10000000827945335069,58,58,-0.021222479641437530518,0,0
1.3720201518239228096e-06,2.9999429751355868312,0.0096485340732214534831,0.10000005378616137752,1.0000000061067026991,0.086836799589388349863,0.38043133131082040865,0.10000000854704758912,59,59,-0.02118947543203830719,0,0
1.3720202389099921547e-06,2.9999429704430999877,0.0096485341016040830631,0.10000005537298417568,1.0000000063134799611,0.086836799618615706509,0.3804313313150698983,0.10000000882053509954,60,60,-0.021156469359993934631,0,0
1.37202032878598834e-06,2.9999429655825959884,0.0096485341307844633973,0.10000005701064303143,1.0000000065048568754,0.086836799646922466223,0.38043133131082468301,0.10000000910383073649,61,61,-0.021123463287949562073,0,0
1.3720204215331350489e-06,2.9999429606120426861,0.0096485341608423449283,0.10000005870061794144,1.0000000067231979983,0.086836799677822998356,0.38043133131506656763,0.10000000939352460261,62,62,-0.021090459078550338745,0,0
1.372020517235334283e-06,2.9999429554642866869,0.0096485341917535542844,0.10000006044443769671,1.0000000069265602143,0.08683679970786024882,0.38043133131082540466,0.10000000969356048763,63,63,-0.021057453006505966187,0,0
1.3720206159791689031e-06,2.9999429501973162715,0.0096485342235974064923,0.10000006224367995189,1.000000007157255677,0.086836799740545797532,0.38043133131506751132,0.10000001000052921585,64,64,-0.021024446934461593628,0,0
1.3720207178540534012e-06,2.9999429447434180496,0.0096485342563531664023,0.10000006409997394541,1.0000000073733763539,0.086836799772426448429,0.38043133131082590426,0.10000001031840666244,65,65,-0.0209914427250623703,0,0
1.3720208229522423707e-06,2.9999429391606011741,0.0096485342901000432231,0.10000006601500066594,1.0000000076172332886,0.08683679980701382306,0.38043133131506723377,0.10000001064378270799,66,66,-0.020958436653017997742,0,0
1.3720209313689867842e-06,2.9999429333805731623,0.0096485343248208059463,0.10000006799049569739,1.0000000078469468701,0.086836799840858305832,0.38043133131082551568,0.10000001098066668703,67,67,-0.020925432443618774414,0,0
1.3720210432025454281e-06,2.9999429274613325092,0.0096485343605947643947,0.10000007002824944091,1.0000000081048292522,0.086836799877472004017,0.38043133131506851052,0.1000000113256493961,68,68,-0.020892426371574401855,0,0
1.3720211585543492273e-06,2.999942921334080026,0.00964853439740760363,0.1000000721301100709,1.0000000083490021563,0.086836799913407120011,0.38043133131082379483,0.10000001168277028452,69,69,-0.020859420299530029297,0,0
1.372021277529017974e-06,2.9999429150566578883,0.0096485344353397888006,0.10000007429798390968,1.0000000086218230333,0.086836799952178592155,0.38043133131507056444,0.10000001204862760118,70,70,-0.020826416090130805969,0,0
1.372021400234529946e-06,2.9999429085597220102,0.0096485344743801153278,0.1000000765338384251,1.0000000088814122723,0.086836799990340329813,0.38043133131082845777,0.10000001242729313067,71,71,-0.020793410018086433411,0,0
1.3720215267822443532e-06,2.9999429019010195319,0.0096485345146095462254,0.10000007883970273015,1.0000000091701140015,0.086836800031407104794,0.38043133131507161915,0.10000001281537161668,72,72,-0.020760403946042060852,0,0
1.3720216572870775201e-06,2.9999428950106339364,0.0096485345560205042215,0.10000008121767073321,1.0000000094461012345,0.086836800071938016754,0.3804313313108291239,0.10000001321696723455,73,73,-0.020727399736642837524,0,0
1.3720217918675318972e-06,2.9999428879461689235,0.0096485345986948318348,0.1000000836699016793,1.0000000097517272035,0.086836800115448836701,0.38043133131507600453,0.10000001362869286037,74,74,-0.020694393664598464966,0,0
1.3720219306458788081e-06,2.999942880637160858,0.0096485346426279754162,0.10000008619862349457,1.0000000100451384988,0.086836800158499385938,0.38043133131082618181,0.10000001405468668392,75,75,-0.020661387592554092407,0,0
1.3720220737481944483e-06,2.9999428731410353599,0.0096485346879032589384,0.10000008880613345252,1.0000000103687667341,0.086836800204610264942,0.38043133131507661515,0.10000001449156908917,76,76,-0.02062838338315486908,0,0
1.3720222213045479265e-06,2.9999428653867146188,0.0096485347345194420743,0.10000009149480153237,1.0000000106807174216,0.086836800250341433793,0.3804313313108206307,0.10000001494351670739,77,77,-0.020595377311110496521,0,0
1.3720223734490463694e-06,2.9999428574314026541,0.0096485347825615210698,0.10000009426707134885,1.0000000110234932293,0.086836800299217947741,0.38043133131507378408,0.1000000154071601921,78,78,-0.020562371239066123962,0,0
1.3720225303200303744e-06,2.9999428492034576621,0.00964853483203159841,0.10000009712546360785,1.0000000113551967829,0.086836800347802653444,0.38043133131082329523,0.10000001588671103558,79,79,-0.020529367029666900635,0,0
1.3720226920601244079e-06,2.9999428407598118795,0.0096485348830159262806,0.10000010007257709166,1.0000000117183156512,0.086836800399618802038,0.38043133131507211875,0.10000001637881446304,80,80,-0.020496360957622528076,0,0
1.3720228588164428463e-06,2.9999428320281955607,0.009648534935520852035,0.10000010311109239214,1.0000000120710113016,0.0868368004512371644,0.38043133131082285114,0.10000001688772008901,81,81,-0.020463354885578155518,0,0
1.3720230307406467269e-06,2.999942823065261166,0.0096485349896341214559,0.10000010624377293766,1.0000000124557832937,0.086836800506180852888,0.38043133131507439471,0.10000001741008740508,82,82,-0.02043035067617893219,0,0
1.372023207989157836e-06,2.9999428137980999054,0.0096485350453659104314,0.10000010947346892054,1.0000000128307993119,0.086836800561024427014,0.38043133131082540466,0.10000001795020507789,83,83,-0.020397344604134559631,0,0
1.3720233907232256239e-06,2.9999428042830760255,0.0096485351028056578343,0.10000011280311847661,1.0000000132385682416,0.086836800619292303649,0.38043133131507333999,0.10000001850474921072,84,84,-0.020364340394735336304,0,0
1.3720235791091491279e-06,2.9999427944465200113,0.0096485351619682770824,0.10000011623575176534,1.0000000136373212722,0.086836800677564995876,0.38043133131082584875,0.10000001907805122769,85,85,-0.020331334322690963745,0,0
1.3720237733183515113e-06,2.9999427843445940489,0.0096485352229443346189,0.10000011977449228817,1.0000000140695479711,0.086836800739367350777,0.38043133131507345102,0.10000001966680083232,86,86,-0.020298328250646591187,0,0
1.3720239735276136322e-06,2.9999427739027879625,0.0096485352857537693555,0.10000012342256120457,1.0000000144935188295,0.086836800801284558249,0.38043133131082373932,0.10000002027537766014,87,87,-0.020265324041247367859,0,0
1.3720241799191572652e-06,2.9999427631769184366,0.0096485353504893196092,0.10000012718327877526,1.0000000149517567216,0.086836800866844296443,0.38043133131507245182,0.10000002090049055214,88,88,-0.0202323179692029953,0,0
1.3720243926808879874e-06,2.9999427520917598677,0.009648535417175243753,0.10000013106006885866,1.0000000154025461274,0.086836800932636237782,0.38043133131082457199,0.10000002154656249809,89,89,-0.020199311897158622742,0,0
