"epsilon","mach_number","pressure","rad_temp","rho","rhoE","rhou","temperature","GlobalNodeId","PedigreeNodeId","Points:0","Points:1","Points:2"
1.3720181259613046279e-06,2.9999431216916527809,0.0096485331899608030998,0.10000001687225697211,1.0000000000010342838,0.086836798706631981859,0.38043133131161954719,0.10000000000326290939,1,1,-0.023103788495063781738,0,0
1.3720181325792031144e-06,2.9999431156965443712,0.0096485332261790918845,0.10000001699284391532,1.0000000002579823022,0.086836798743374021825,0.38043133131427020466,0.10000000035294422107,2,2,-0.022988269105553627014,0,0
1.3720181514139939598e-06,2.999943109725512258,0.0096485332621176946727,0.10000001733603898491,1.000000000499664754,0.086836798778784904385,0.38043133131162082394,0.10000000070125333873,3,3,-0.022872751578688621521,0,0
1.3720181824647244637e-06,2.9999431037330612781,0.0096485332983133071522,0.100000017901824792,1.0000000007565121862,0.086836798815499938176,0.38043133131427075977,0.10000000105070969147,4,4,-0.022757232189178466797,0,0
1.3720182258924833519e-06,2.9999430976060699194,0.0096485333351857931194,0.10000001869313657199,1.0000000010046987686,0.086836798851840674152,0.38043133131162054639,0.10000000140804742033,5,5,-0.022641712799668312073,0,0
1.3720182820186952758e-06,2.9999430913005173949,0.0096485333732628155573,0.10000001971583109828,1.0000000012746086409,0.086836798890432859155,0.38043133131427125937,0.10000000177569695614,6,6,-0.022526193410158157349,0,0
1.372018351326616037e-06,2.9999430847020120972,0.0096485334129718207385,0.10000002097871392437,1.0000000015424490574,0.086836798929605676922,0.38043133131161982474,0.10000000216046776857,7,7,-0.022410675883293151855,0,0
1.3720184344638904151e-06,2.9999430777639597423,0.0096485334548558916029,0.10000002249358597162,1.0000000018387216194,0.086836798972000181496,0.38043133131426909443,0.10000000256493829509,8,8,-0.022295156493782997131,0,0
1.3720185322482914511e-06,2.9999430703663949593,0.0096485334993761020378,0.1000000242753481261,1.0000000021398811612,0.086836799015979931893,0.38043133131162093497,0.10000000299624181577,9,9,-0.022179637104272842407,0,0
1.3720186456745308044e-06,2.9999430624561158609,0.0096485335471151473935,0.10000002634212529218,1.0000000024766750872,0.08683679906422440975,0.38043133131426964955,0.10000000345734276486,10,10,-0.022064117714762687683,0,0
1.3720187759243443737e-06,2.9999430539032378995,0.0096485335985938471687,0.10000002871545024541,1.0000000028259861118,0.08683679911515711225,0.38043133131162054639,0.10000000395595078084,11,11,-0.02194860018789768219,0,0
1.3720189243777686353e-06,2.9999430446435857434,0.0096485336544609827392,0.10000003142046899607,1.0000000032190192734,0.08683679917152350991,0.3804313313142679287,0.10000000449566953664,12,12,-0.021833080798387527466,0,0
1.3720190926278976505e-06,2.9999430345328179648,0.0096485337153245382541,0.10000003448620976843,1.0000000036332676867,0.086836799231834987944,0.38043133131162043536,0.10000000508505098307,13,13,-0.021717561408877372742,0,0
1.372019282497067113e-06,2.9999430234909514326,0.0096485337819283891608,0.10000003794587782047,1.0000000041005807638,0.086836799298931219293,0.38043133131426770666,0.10000000572861994508,14,14,-0.021602042019367218018,0,0
1.372019496056841785e-06,2.9999430113541318832,0.0096485338549981529421,0.1000000418372196942,1.0000000045992769593,0.086836799371441703022,0.38043133131162198968,0.10000000643606506145,15,15,-0.021486522629857063293,0,0
1.3720197356497869967e-06,2.9999429980210408075,0.0096485339354061300937,0.10000004620291987056,1.0000000051620836494,0.086836799452333704452,0.3804313313142689279,0.10000000721315434327,16,16,-0.0213710051029920578,0,0
1.372020003915497334e-06,2.9999429833023398828,0.0096485340240314316357,0.10000005109107502899,1.0000000057683759991,0.086836799540389808527,0.38043133131161899207,0.10000000807106161627,17,17,-0.021255485713481903076,0,0
1.3720203038189017262e-06,2.9999429670691197813,0.0096485341219128464146,0.10000005655570988472,1.0000000064520611076,0.08683679963874571528,0.38043133131426853932,0.10000000901716246671,18,18,-0.021139966323971748352,0,0
1.37202063868343008e-06,2.9999429490995015435,0.0096485342301253045061,0.10000006265738137223,1.0000000071938495161,0.086836799746377923981,0.38043133131161971372,0.10000001006452671759,19,19,-0.021024446934461593628,0,0
1.3720210122271059889e-06,2.9999429292293702254,0.009648534349919831235,0.10000006946383642459,1.000000008029117593,0.08683679986663520034,0.38043133131427148141,0.10000001122258267428,20,20,-0.020908929407596588135,0,0
1.3720214286042760227e-06,2.9999429071959444748,0.0096485344826176180216,0.10000007705077218478,1.0000000089402687475,0.086836799998738709028,0.38043133131162021332,0.10000001250678319797,21,21,-0.020793410018086433411,0,0
1.3720218924511021735e-06,2.999942882790656018,0.0096485346297377223151,0.10000008550266505092,1.000000009964555403,0.086836800146306722392,0.38043133131427336879,0.10000001392914693865,22,22,-0.020677890628576278687,0,0
1.3720224089376711104e-06,2.9999428556997318474,0.0096485347929083746521,0.10000009491372001402,1.0000000110864790681,0.086836800308865633169,0.38043133131161799287,0.10000001550809918538,23,23,-0.020562371239066123962,0,0
1.3720229838249294052e-06,2.9999428256589317776,0.0096485349739843344341,0.10000010538890813372,1.0000000123456429524,0.086836800490371401917,0.38043133131427275817,0.10000001725890282633,24,24,-0.020446853712201118469,0,0
1.3720236235294629179e-06,2.9999427922910544275,0.0096485351749758356543,0.1000001170451468302,1.0000000137291811253,0.086836800690730728269,0.38043133131161899207,0.10000001920367908304,25,25,-0.020331334322690963745,0,0
1.3720243351944355944e-06,2.9999427552625670401,0.0096485353981551440217,0.10000013001259241974,1.0000000152795673891,0.086836800914316933375,0.38043133131427225857,0.10000002136173093137,26,26,-0.020215814933180809021,0,0
1.3720251267699011073e-06,2.9999427141176058242,0.0096485356460064754941,0.10000014443610341641,1.0000000169872342859,0.086836801161510573932,0.38043133131161804839,0.10000002375976220492,27,27,-0.020100295543670654297,0,0
1.3720260071009412924e-06,2.9999426684364718376,0.0096485359213213765794,0.10000016047684645581,1.000000018898245191,0.086836801437204666487,0.38043133131427325777,0.10000002642209890324,28,28,-0.019984778016805648804,0,0
1.3720269860270728769e-06,2.9999426176660834997,0.0096485362271697232284,0.10000017831410747127,1.0000000210070709716,0.086836801742364147505,0.38043133131161843696,0.10000002938111095252,29,29,-0.01986925862729549408,0,0
1.3720280744915566576e-06,2.9999425612797057106,0.0096485365669880546885,0.10000019814728335066,1.0000000233642587499,0.086836802082527267399,0.38043133131427631088,0.1000000326673608636,30,30,-0.019753739237785339355,0,0
1.3720292846643197692e-06,2.9999424986041312025,0.009648536944569871196,0.10000022019812150609,1.000000025969241424,0.086836802459380718622,0.38043133131161532834,0.10000003632022218258,31,31,-0.019638219848275184631,0,0
1.3720306300773604655e-06,2.9999424289800753485,0.00964853736415064063,0.10000024471318695596,1.0000000288781369928,0.086836802879263236266,0.38043133131427198101,0.10000004037798064516,32,32,-0.019522702321410179138,0,0
1.3720321257766668667e-06,2.9999423515857537303,0.009648537830419089828,0.10000027196663018036,1.0000000320965709566,0.086836803344756283152,0.38043133131161477323,0.10000004488866892638,33,33,-0.019407182931900024414,0,0
1.3720337884898136508e-06,2.9999422655979310903,0.0096485383485984035218,0.10000030226324062299,1.0000000356874687579,0.086836803863184500174,0.38043133131427214755,0.10000004990012895112,34,34,-0.01929166354238986969,0,0
1.3720356368136588378e-06,2.9999421700112445244,0.0096485389244835035455,0.10000033594186635844,1.0000000396641053335,0.08683680443823529882,0.38043133131161321892,0.10000005547109336312,35,35,-0.019176144152879714966,0,0
1.3720376914216769144e-06,2.9999420637995490857,0.009648539564520238962,0.10000037337919144564,1.0000000440978875638,0.0868368050784557588,0.38043133131427214755,0.1000000616612279486,36,36,-0.019060626626014709473,0,0
1.3720399752958235151e-06,2.9999419457308036385,0.0096485402758694129716,0.10000041499396017386,1.0000000490115195095,0.086836805788898699388,0.38043133131161516181,0.10000006854247879551,37,37,-0.018945107236504554749,0,0
1.3720425139829312372e-06,2.9999418145278569092,0.0096485410664890851329,0.10000046125164813171,1.0000000544868741237,0.086836806579620937074,0.38043133131427331328,0.10000007618913804575,38,38,-0.018829587846994400024,0,0
1.3720453358811135024e-06,2.9999416686785735919,0.0096485419452279636704,0.10000051266967988073,1.0000000605583299063,0.086836807457363981988,0.3804313313116171047,0.10000008468947819973,39,39,-0.0187140684574842453,0,0
1.3720484725567545676e-06,2.9999415065958086046,0.0096485429219118640926,0.1000005698232037249,1.0000000673206634882,0.086836808434050491434,0.38043133131427225857,0.10000009413585896068,40,40,-0.018598549067974090576,0,0
1.3720519590982760115e-06,2.9999413264212133612,0.0096485440074756973622,0.10000063335153627775,1.0000000748227186875,0.086836809518507918071,0.38043133131161821492,0.10000010463672828753,41,41,-0.018483031541109085083,0,0
1.3720558345079678233e-06,2.9999411261844426413,0.0096485452140541543009,0.10000070396530032213,1.0000000831752122732,0.086836810724965823871,0.38043133131427298022,0.10000011630678160013,42,42,-0.018367512151598930359,0,0
1.3720601421389606298e-06,2.999940903599600972,0.0096485465551583264598,0.10000078245438467905,1.0000000924448129158,0.086836812064826449098,0.3804313313116171047,0.1000001292793845642,43,43,-0.018251992762088775635,0,0
1.3720649301795106423e-06,2.9999406562226593742,0.0096485480457772238722,0.10000086969676570681,1.0000001027619997984,0.086836813555173295032,0.38043133131427525617,0.10000014369683929427,44,44,-0.018136473372578620911,0,0
1.3720702521927517087e-06,2.9999403812396896463,0.0096485497026033810453,0.1000009666683387699,1.0000001142154149036,0.086836815210586421054,0.38043133131161677163,0.1000001597232874212,45,45,-0.018020955845713615417,0,0
1.3720761677151956645e-06,2.9999400756211480612,0.0096485515441540239262,0.10000107445381939408,1.0000001269599709808,0.086836817051677187007,0.38043133131427592231,0.1000001775351549993,46,46,-0.017905436456203460693,0,0
1.3720827429234508127e-06,2.9999397359009631892,0.0096485535910511583541,0.10000119425888637226,1.0000001411114813887,0.086836819096952788666,0.38043133131161976923,0.10000019733459257487,47,47,-0.017789917066693305969,0,0
1.3720900513738246235e-06,2.999939358326014549,0.0096485558661718422158,0.10000132742365167027,1.0000001568550049846,0.08683682137138110102,0.38043133131427797622,0.10000021934019796832,48,48,-0.017674397677183151245,0,0
1.3720981748258947154e-06,2.9999389386246373412,0.0096485583949923649921,0.1000014754376588183,1.0000001743399369314,0.086836823898321952031,0.3804313313116211015,0.10000024380107455646,49,49,-0.017558880150318145752,0,0
1.3721072041564311478e-06,2.9999384721497124318,0.0096485612057766925037,0.10000163995652565363,1.0000001937886127124,0.086836826708127756724,0.38043133131428319427,0.10000027098792374503,50,50,-0.017443360760807991028,0,0
1.3721172403767452475e-06,2.9999379536342547503,0.0096485643299982510462,0.10000182282046923832,1.0000002153918805536,0.08683682983015011958,0.38043133131162371052,0.10000030120785938226,51,51,-0.017327841371297836304,0,0
1.372128395761970451e-06,2.9999373773265616272,0.0096485678025770484773,0.10000202607486742556,1.000000239418134873,0.086836833301395965901,0.38043133131428569227,0.10000033479596180663,52,52,-0.01721232198178768158,0,0
1.372140795107806994e-06,2.999936736730258513,0.0096485716623942643227,0.10000225199313929336,1.0000002661094535839,0.086836837158619770149,0.38043133131162437666,0.10000037213099761957,53,53,-0.017096804454922676086,0,0
1.3721545771258699908e-06,2.9999360247286266379,0.0096485759525952192323,0.10000250310214665872,1.0000002957911549029,0.086836841447050866494,0.38043133131429257565,0.10000041362760384023,54,54,-0.016981285065412521362,0,0
1.3721698959961866885e-06,2.9999352333066462428,0.0096485807212117018217,0.10000278221045350024,1.0000003287685721443,0.086836846212587290306,0.38043133131163242577,0.10000045975306054435,55,55,-0.016865765675902366638,0,0
1.3721869230912555867e-06,2.9999343536610743044,0.0096485860215516933841,0.10000309243970451067,1.0000003654373366135,0.086836851510616722138,0.38043133131430317828,0.10000051102030158012,56,56,-0.016750246286392211914,0,0
1.3722058488939289298e-06,2.9999333759008850464,0.0096485919129511727582,0.1000034372595270532,1.0000004061809442124,0.08683685739833396644,0.38043133131163808791,0.10000056800594984974,57,57,-0.016634728759527206421,0,0
1.372226885127577114e-06,2.9999322891390090007,0.0096485984612751755918,0.1000038205262905322,1.0000004514819398338,0.086836863943679926114,0.38043133131431489113,0.10000063134439188262,58,58,-0.016519209370017051697,0,0
1.3722502671253817194e-06,2.9999310811667507792,0.0096486057398252073752,0.10000424652621013599,1.0000005018203743656,0.086836871217804534329,0.38043133131165085548,0.10000070174733673156,59,59,-0.016403689980506896973,0,0
1.3722762564622180718e-06,2.9999297385226961765,0.0096486138299792072182,0.10000472002321930676,1.0000005577861017514,0.086836879304155012438,0.38043133131432949057,0.10000077999921888616,60,60,-0.016288170590996742249,0,0
1.3723051438816404847e-06,2.9999282461348357742,0.0096486228222928422521,0.10000524631219963323,1.0000006199785553829,0.086836888291126471118,0.38043133131167550243,0.10000086697863463936,61,61,-0.016172651201486587524,0,0
1.372337252547614003e-06,2.9999265873610974076,0.0096486328173104232014,0.10000583127810357131,1.0000006891201123072,0.0868368982813204765,0.38043133131435835637,0.10000096365541005783,62,62,-0.016057133674621582031,0,0
1.3723729416604874674e-06,2.9999247435924112359,0.0096486439269022252624,0.1000064814616840464,1.0000007659576606311,0.086836909384436195003,0.3804313313117091977,0.10000107111430435458,63,63,-0.015941614285111427307,0,0
1.3724126104745211814e-06,2.9999226942568877341,0.009648656275294108936,0.10000720413250367702,1.0000008513773805952,0.086836921726744009664,0.38043133131439699213,0.10000119055420278458,64,64,-0.015826094895601272583,0,0
1.3724567027650579952e-06,2.9999204163759123354,0.0096486700006882999275,0.10000800737009092611,1.0000009463083361361,0.086836935444262630668,0.38043133131176459782,0.1000013233145554542,65,65,-0.015710575506091117859,0,0
1.3725057117921459059e-06,2.9999178845224903078,0.0096486852565684892713,0.10000890015408570033,1.000001051839018551,0.086836950692501371774,0.38043133131445988626,0.1000014708772488381,66,66,-0.01559505704790353775,0,0
1.3725601858193128273e-06,2.9999150703198855794,0.0096487022136684079399,0.10000989246443003911,1.0000011691235788369,0.086836967639995918389,0.38043133131184608819,0.10000163489638511094,67,67,-0.015479538589715957642,0,0
1.3726207342460252004e-06,2.9999119423429232434,0.0096487210616194220986,0.10001099539265442817,1.0000012995005005401,0.086836986478381658627,0.38043133131455708629,0.1000018172034901065,68,68,-0.015364019200205802917,0,0
1.3726880344256539683e-06,2.9999084655462224802,0.0096487420113448314068,0.10001222126554777658,1.0000014444019658111,0.086837007416364436763,0.38043133131196887886,0.10000201984139145406,69,69,-0.015248500742018222809,0,0
1.3727628392419498727e-06,2.9999046010941956553,0.0096487652971364318982,0.10001358378251612447,1.000001605475359101,0.086837030690214617179,0.38043133131470813213,0.10000224507358905501,70,70,-0.015132981352508068085,0,0
1.3728459855320625367e-06,2.9999003057033371,0.0096487911795678140553,0.10001509816820310095,1.000001784496298507,0.086837056558262140649,0.38043133131215206566,0.10000249542314527951,71,71,-0.015017462894320487976,0,0
1.372938403447003097e-06,2.9998955313829775982,0.0096488199481090212994,0.10001678134199004644,1.0000019834938949082,0.086837085311926937026,0.38043133131493989119,0.10000277368725650484,72,72,-0.014901943504810333252,0,0
1.3730411268575744045e-06,2.9998902246726255605,0.0096488519246724826356,0.10001865210629665159,1.0000022046680003829,0.086837117270843131034,0.38043133131243406231,0.10000308298227778003,73,73,-0.014786425046622753143,0,0
1.3731553049188080912e-06,2.9998843262716983205,0.0096488874668982198279,0.10002073135568338713,1.0000024505193199076,0.086837152794565997116,0.38043133131528888979,0.10000342676475801329,74,74,-0.014670905657112598419,0,0
1.3732822149256195095e-06,2.9998777701473473556,0.0096489269724804420381,0.10002304230910138982,1.0000027237719151252,0.086837192278470018425,0.3804313313128676044,0.10000380888402934931,75,75,-0.014555387198925018311,0,0
1.37342327660005889e-06,2.999870483027199608,0.0096489708832798639498,0.10002561076775874638,1.0000030275090561194,0.086837236166286121963,0.38043133131582401729,0.10000423361123959853,76,76,-0.014439867809414863586,0,0
1.3735800679733698966e-06,2.9998623833474993283,0.009649019690613854297,0.10002846540146650978,1.0000033651024475834,0.086837284946961468268,0.38043133131352663279,0.1000047057012544427,77,77,-0.014324349351227283478,0,0
1.373754343037015506e-06,2.9998533805758063053,0.00964907394039546569,0.10003163806650219869,1.0000037403551595983,0.086837339168224558783,0.38043133131664041979,0.10000523043162147518,78,78,-0.014208829961717128754,0,0
1.3739480513635359682e-06,2.9998433739631149564,0.0096491342396067374121,0.10003516415848276444,1.0000041574389950672,0.086837399434624387706,0.38043133131453432672,0.1000058136759187366,79,79,-0.014093311503529548645,0,0
1.3741633599131507243e-06,2.9998322516555164796,0.0096492012627126446528,0.10003908300397403031,1.0000046210463189311,0.086837466422373485453,0.38043133131788742229,0.10000646195503982983,80,80,-0.013977792114019393921,0,0
1.374402677273459288e-06,2.9998198892048950626,0.0096492757595922542396,0.10004343829508827168,1.0000051363374522495,0.086837540878840130398,0.38043133131607476116,0.10000718252464625702,81,81,-0.013862273655831813812,0,0
1.3746686805997294391e-06,2.9998061484195961413,0.0096493585635302019099,0.10004827857162829075,1.0000057091034373347,0.086837623638971600526,0.38043133131978679184,0.10000798344170482024,82,82,-0.013746754266321659088,0,0
1.3749643455605506387e-06,2.9997908755777622503,0.009649450600945077075,0.10005365775594265987,1.0000063457259045219,0.086837715626582587247,0.38043133131842216121,0.10000887366931500433,83,83,-0.013631235808134078979,0,0
1.3752929796200491165e-06,2.9997738999546599281,0.0096495529013355969133,0.10005963574604694044,1.0000070533533060857,0.086837817872728498281,0.38043133132268719399,0.10000986316215214333,84,84,-0.013515716418623924255,0,0
1.375658259032343856e-06,2.9997550316700625217,0.0096496666092228972761,0.10006627907326461069,1.0000078398761378384,0.086837931519209890507,0.38043133132200412927,0.10001096299269762735,85,85,-0.013400197029113769531,0,0
1.3760642699581402996e-06,2.9997340598155028957,0.0096497929965175914535,0.10007366163112708934,1.0000087141199609508,0.086838057839364338197,0.38043133132711476341,0.10001218546008466825,86,86,-0.013284678570926189423,0,0
1.3765155541666852439e-06,2.999710749850811542,0.009649933477191657144,0.10008186548307415609,1.00000968583943739,0.086838198244299336093,0.38043133132747547487,0.10001354424272616839,87,87,-0.013169159181416034698,0,0
1.3770171598301778345e-06,2.9996848412369239156,0.0096500896226403478501,0.10009098175708680545,1.0000107659321644249,0.086838354306675580307,0.38043133133387269096,0.10001505453610434748,88,88,-0.01305364072322845459,0,0
1.3775746979819555134e-06,2.999656044276614697,0.0096502631797232944766,0.10010111163629771547,1.0000119664560020993,0.086838527770311008114,0.3804313313358227977,0.10001673323797177773,89,89,-0.012938121333718299866,0,0
