"epsilon","mach_number","pressure","rad_temp","rho","rhoE","rhou","temperature","GlobalNodeId","PedigreeNodeId","Points:0","Points:1","Points:2"
1.6531022212730666179e-05,2.9999333038149957886,0.099160876095698000099,0.18631010024836872074,5.516584636392928509,0.89244788497895499724,2.8645140194044369508,0.18629824030215616504,1,1,-0.016003377735614776611,0,0
1.6531036995426990412e-05,2.9999319364380290232,0.099160959821379388024,0.18631014189982672558,5.5165849122466497079,0.89244796054475006297,2.8645139946880768811,0.18629838828581776755,2,2,-0.015923362225294113159,0,0
1.6531078520781810573e-05,2.9999306080307057698,0.099161043164044185283,0.18631025890076660656,5.5165852560933634763,0.89244805203794042026,2.8645140194045528581,0.18629853325370732131,3,3,-0.015843344852328300476,0,0
1.6531146729642455431e-05,2.9999292469974605524,0.099161126482271336191,0.18631045108409582944,5.5165855305015840671,0.89244812718729582546,2.8645139946879227821,0.18629868052064968431,4,4,-0.015763327479362487793,0,0
1.6531241731986663027e-05,2.9999279078824989675,0.099161210474327812769,0.18631071875898475021,5.5165858768236049059,0.89244821932106788154,2.8645140194047620241,0.18629882662495464429,5,5,-0.01568331010639667511,0,0
1.6531363808879890866e-05,2.9999265188955441808,0.099161295510727470726,0.1863110627163701849,5.5165861576704111613,0.89244829617951171308,2.8645139946877922199,0.18629897690244157094,6,6,-0.015603293664753437042,0,0
1.6531513408866508317e-05,2.9999251349471456329,0.099161382266991907053,0.18631148421876747578,5.516586514312308509,0.89244839106847539956,2.864514019404865941,0.18629912785144844833,7,7,-0.015523277223110198975,0,0
1.6531691152132506161e-05,2.9999236838295835206,0.099161471139381132667,0.18631198501197016038,5.5165868094549352918,0.89244847175355490609,2.8645139946877042902,0.18629928485297470031,8,8,-0.015443259850144386292,0,0
1.6531897829023554843e-05,2.9999222206054634299,0.09916156279394121309,0.18631256732083603667,5.516587184334864169,0.89244857153137524541,2.8645140194050142668,0.18629944438868739631,9,9,-0.015363243408501148224,0,0
1.6532134406381380131e-05,2.9999206724309002148,0.099161657666241756481,0.18631323386709144896,5.5165875018026939713,0.89244865820650054467,2.8645139946876398973,0.18629961190854971154,10,10,-0.015283226035535335541,0,0
1.6532402028184326696e-05,2.9999190943062110648,0.099161756426128677688,0.18631398787107625314,5.5165879031109978925,0.89244876507954795652,2.8645140194051559313,0.18629978390081844419,11,11,-0.015203209593892097473,0,0
1.6532702024080798313e-05,2.9999174125300078764,0.099161859562204177077,0.18631483307571419794,5.5165882513063930759,0.89244886000782830404,2.864513994687678089,0.18629996590847863747,12,12,-0.01512319222092628479,0,0
1.6533035912202589712e-05,2.9999156818217089793,0.099161967761653216358,0.18631577375435320887,5.5165886877066956373,0.89244897630943798017,2.8645140194052953753,0.18630015445015005171,13,13,-0.015043175779283046722,0,0
1.6533405409973409836e-05,2.9999138273932111076,0.099162081580312144702,0.1863168147411156661,5.5165890756078388435,0.89244908190862581865,2.8645139946875377568,0.18630035518672091732,14,14,-0.014963158406317234039,0,0
1.6533812439199848011e-05,2.9999119034533854311,0.099162201736952129694,0.18631796144512166591,5.5165895564469478174,0.89244921015536538,2.8645140194056191163,0.186300564692113646,15,15,-0.014883141964673995972,0,0
1.6534259139288055932e-05,2.9999098338850052059,0.099162328869632068717,0.18631921988758470832,5.5165899938228433186,0.89244932905558338465,2.8645139946874786929,0.1863007887714705213,16,16,-0.014803124591708183289,0,0
1.6534747874773216648e-05,2.9999076721412638591,0.099162463743913450975,0.18632059672286052643,5.5165905293493873174,0.89244947200647861685,2.8645140194060019212,0.18630102408064036501,17,17,-0.014723108150064945221,0,0
1.6535281251134737281e-05,2.9999053405135676087,0.099162607096318272637,0.18632209928281143196,5.5165910269886131445,0.89244960711183851654,2.8645139946874498271,0.1863012765974944307,18,18,-0.014643090777099132538,0,0
1.6535862124983727734e-05,2.9999028914322085626,0.099162759755750493063,0.18632373560528434076,5.5165916285921685613,0.8924497678326210881,2.864514019406255052,0.18630154308884167014,19,19,-0.01456307433545589447,0,0
1.6536493622727622407e-05,2.9999002453107799226,0.099162922574957262922,0.18632551448643297487,5.5165921985523871385,0.89244992238836107212,2.864513994687553744,0.18630182973638761967,20,20,-0.014483056962490081787,0,0
1.6537179153698211705e-05,2.9998974532596176523,0.099163096464563796339,0.18632744551740076933,5.5165928790257989789,0.8924501043219663643,2.864514019406688039,0.18630213345016197191,21,21,-0.014403040520846843719,0,0
1.6537922431981991802e-05,2.9998944334969093184,0.099163282413214981492,0.18632953914546812602,5.5165935349077042105,0.89245028198836207078,2.8645139946875333159,0.18630246065021061064,22,22,-0.014323023147881031036,0,0
1.6538727492839813612e-05,2.9998912354821434256,0.099163481433787628583,0.18633180671990143273,5.5165943087372690812,0.89245048903319323941,2.8645140194072520323,0.18630280842572652378,23,23,-0.014243006706237792969,0,0
1.6539598718091392962e-05,2.9998877748789678499,0.099163694673038704774,0.18633426056298754703,5.5165950659943634449,0.89245069396869669553,2.8645139946876909676,0.18630318347407534563,24,24,-0.014162989333271980286,0,0
1.6540540856253224146e-05,2.999884099123197867,0.099163923269205325739,0.18633691402621355149,5.5165959496865681899,0.8924509305664591885,2.8645140194080362939,0.18630358310412795109,25,25,-0.014082972891628742218,0,0
1.6541559051945778304e-05,2.9998801209191530148,0.099164168552227274778,0.18633978157246469665,5.5165968259708364485,0.89245116752102204849,2.8645139946878281911,0.18630401433454710225,26,26,-0.014002955518662929535,0,0
1.6542658870261272512e-05,2.9998758852528739638,0.099164431812113526532,0.18634287884392577994,5.5165978384227924991,0.89245143875642540809,2.8645140194089058205,0.18630447474013245301,27,27,-0.013922939077019691467,0,0
1.6543846330751927275e-05,2.9998713014090068185,0.099164714590501051861,0.18634622275695725269,5.5165988539817307768,0.89245171317794469434,2.8645139946882092197,0.18630497171086016217,28,28,-0.013842921704053878784,0,0
1.6545127936634930715e-05,2.9998664114371171863,0.099165018359319165309,0.18634983158336101972,5.5166000169022861854,0.89245202489216379771,2.8645140194098948072,0.18630550314034644011,29,29,-0.013762905262410640717,0,0
1.6546510714022169818e-05,2.9998611206752325842,0.099165344904560789874,0.18635372505971609103,5.5166011950288531551,0.89245234304778275902,2.8645139946887838711,0.18630607684709143967,30,30,-0.013682888820767402649,0,0
1.6548002246678539137e-05,2.9998554676777251515,0.099165695914706419867,0.18635792448393573295,5.5166025334236810096,0.89245270196863368817,2.8645140194115348287,0.18630669110423939139,31,31,-0.013602871447801589966,0,0
1.6549610721269803864e-05,2.9998493532309034038,0.099166073457554890225,0.18636245284114383303,5.5166039009725293951,0.89245307108386917605,2.8645139946893491967,0.18630735422456967676,32,32,-0.013522855006158351898,0,0
1.6551344968514672358e-05,2.9998428117511926061,0.099166479478030589156,0.18636733491776807936,5.5166054436974780728,0.89245348497493026674,2.8645140194133920097,0.18630806493055224182,33,33,-0.013442837633192539215,0,0
1.6553214515360731426e-05,2.9998357387762557558,0.099166916368912075286,0.18637259744637826864,5.5166070316846980148,0.89245391339438617795,2.8645139946905544548,0.18630883210498386249,34,34,-0.013362821191549301147,0,0
1.6555229633513372838e-05,2.9998281638434045604,0.099167386377492908189,0.18637826923991956951,5.5166088120850700349,0.89245439122709002699,2.8645140194159193214,0.18630965500022281245,35,35,-0.013282803818583488464,0,0
1.6557401399602630654e-05,2.9998199764383093324,0.099167892271321347875,0.18638438135831472686,5.5166106563707817401,0.89245488859869503973,2.8645139946920679108,0.18631054315635273144,36,36,-0.013202787376940250397,0,0
1.6559741752236247522e-05,2.9998112003620187593,0.099168436653233396627,0.18639096726584802877,5.5166127130203701512,0.89245544075091043368,2.8645140194189426808,0.1863114964487869174,37,37,-0.013122770003974437714,0,0
1.6562263561396470789e-05,2.9998017181207488058,0.099169022723031644007,0.18639806302276412664,5.5166148551048745929,0.89245601823973885747,2.8645139946942910214,0.18631252517569943383,38,38,-0.013042753562331199646,0,0
1.6564980695353822356e-05,2.9997915467885456486,0.099169653500535651092,0.1864057074692694882,5.5166172326590343644,0.89245665672523699641,2.8645140194231779596,0.18631362994325115223,39,39,-0.012962736189365386963,0,0
1.6567908100736293092e-05,2.9997805608193464089,0.09917033268429917281,0.18641394244584541529,5.5166197205979488061,0.8924573272598961271,2.864513994697444943,0.18631482192434442591,40,40,-0.012882719747722148895,0,0
1.6571061880858887425e-05,2.9997687694134498315,0.099171063782299007094,0.18642281300784765974,5.5166224707791560178,0.89245806599366672707,2.8645140194286744517,0.18631610258057385021,41,41,-0.012802702374756336212,0,0
1.6574459388142646216e-05,2.9997560377318452929,0.099171851068762417736,0.18643236767879436955,5.5166253602460004757,0.89245884455204216312,2.8645139947017090876,0.186317484094473379,42,42,-0.012722685933113098145,0,0
1.6578119315667778341e-05,2.9997423657730064583,0.099172698622261690193,0.18644265870011936248,5.5166285429871830814,0.89245969965762161902,2.8645140194359215435,0.18631896892750182682,43,43,-0.012642668560147285461,0,0
1.6582061803891795732e-05,2.9997276079686741035,0.099173611381774301465,0.18645374232230316203,5.5166318985026139288,0.89246060359747181323,2.8645139947076305731,0.18632057042806529634,44,44,-0.012562652118504047394,0,0
1.6586308547526348498e-05,2.9997117535769479701,0.099174594092004603185,0.18646567909497571702,5.5166355832689797367,0.89246159376274736275,2.8645140194453428961,0.18632229222487806108,45,45,-0.012482634745538234711,0,0
1.6590882918818235437e-05,2.9996946446370755801,0.099175652459888227752,0.18647853420143226111,5.5166394796257467448,0.89246264320485546584,2.8645139947160256355,0.18632414901315150213,46,46,-0.012402618303894996643,0,0
1.6595810092188665756e-05,2.9996762578842379732,0.099176792006968245152,0.18649237779498933909,5.516643746948815874,0.89246379009443665975,2.8645140194578946335,0.18632614578289527496,47,47,-0.01232260093092918396,0,0
1.6601117186705186744e-05,2.9996564210386935656,0.099178019327739924682,0.18650728538316985183,5.5166482708605926177,0.89246500836637643328,2.8645139947275835013,0.18632829878580539629,48,48,-0.012242584489285945892,0,0
1.6606833411313990181e-05,2.9996350962471085566,0.099179340848945043985,0.18652333821699279559,5.5166532141150312896,0.89246633709953193669,2.8645140194744156403,0.18633061459809008298,49,49,-0.012162567116320133209,0,0
1.6612990229552878772e-05,2.9996120946789077699,0.099180764191258277696,0.18654062373192120683,5.516658466130225591,0.8924677512502802168,2.8645139947431168537,0.18633311127097823556,50,50,-0.012082550674676895142,0,0
1.6619621528661363577e-05,2.999587361497655813,0.099182296835524846879,0.18655923599760759757,5.5166641935952700493,0.89246929095518823249,2.8645140194964606728,0.18633579722770998721,51,51,-0.012002533301711082458,0,0
1.6626763810073535592e-05,2.9995606887370036553,0.099183947589209481288,0.18657927622356965114,5.516670290316301184,0.89247093235175745107,2.864513994764449567,0.18633869260069657603,52,52,-0.011922516860067844391,0,0
1.6634456386216992598e-05,2.9995320018023936548,0.099185725159933499362,0.18660085327781225639,5.5166769275628046998,0.89247271680763440305,2.8645140195258433913,0.1863418079626850965,53,53,-0.011842499487102031708,0,0
1.6642741600891035509e-05,2.9995010705963771613,0.099187639728216106527,0.18662408426611809542,5.5166840042177929249,0.89247462182680126208,2.8645139947935671643,0.1863451658538225475,54,54,-0.01176248304545879364,0,0
1.6651665058175153968e-05,2.9994677975500292355,0.099189701428702412023,0.18664909512890742738,5.5166916968785244535,0.89247669020882891555,2.8645140195646532355,0.18634877934714930148,55,55,-0.011682465672492980957,0,0
1.6661275877454326125e-05,2.9994319269645082215,0.099191922030967979995,0.18667602130398358584,5.5166999103058094178,0.89247890103937521644,2.8645139948332243307,0.18635267376913774995,56,56,-0.011602449230849742889,0,0
1.6671626959564499003e-05,2.9993933345697385562,0.099194313328896055459,0.18670500841194967445,5.5167088272900448587,0.89248129878270088255,2.8645140196166001267,0.18635686509991913895,57,57,-0.011522431857883930206,0,0
1.6682775281987521172e-05,2.9993517350454097503,0.099196888931538690359,0.18673621301320206256,5.5167183593961057753,0.89248386435536886108,2.8645139948870030899,0.18636138189124637488,58,58,-0.011442415416240692139,0,0
1.6694782208179867087e-05,2.9993069731018833224,0.09919966256141377059,0.18676980339316071045,5.5167286966141917404,0.89248664415678058415,2.8645140196858651649,0.18636624350214114898,59,59,-0.011362398974597454071,0,0
1.6707713829341259634e-05,2.9992587291400116811,0.099202649957461877528,0.18680596042521022127,5.5167397583881401246,0.89248962122331065849,2.8645139949598292795,0.18637148221861965514,60,60,-0.011282381601631641388,0,0
1.6721641323821740749e-05,2.9992068118483308226,0.099205867083242194049,0.18684487846786124177,5.516751743075112735,0.89249284420305974308,2.8645140197786504999,0.18637712132566863765,61,61,-0.01120236515998840332,0,0
1.6736641352889576086e-05,2.99915086195387115,0.099209332144402986864,0.18688676634613385352,5.5167645792432384866,0.89249629858726109433,2.8645139950586928634,0.18638319743386375094,62,62,-0.011122347787022590637,0,0
1.6752796478211040023e-05,2.9990906463287312356,0.099213063707897994337,0.18693184837347268101,5.5167784749699890767,0.89250003563624502601,2.8645140199024630157,0.18638973838863298615,63,63,-0.01104233134537935257,0,0
1.6770195620226614942e-05,2.9990257597808023249,0.099217082836614359231,0.18698036546465665597,5.5167933693951702878,0.89250404368508695629,2.8645139951924223354,0.18639678580933527474,64,64,-0.010962313972413539886,0,0
1.6788934542971941971e-05,2.9989559206539730951,0.099221411121235725261,0.1870325762957345539,5.5168094818857369432,0.89250837702789587169,2.8645140200684275911,0.18640437283776389865,65,65,-0.010882297530770301819,0,0
1.6809116385042121428e-05,2.9988806706046147177,0.099226072934829198657,0.18708875856180351427,5.5168267638298571498,0.8925130272942053411,2.8645139953732319249,0.18641254689557704149,66,66,-0.010802280157804489136,0,0
1.6830852222497439351e-05,2.9987996716795999319,0.099231093379270884913,0.18714921028826525529,5.5168454477058554986,0.89251805230120717649,2.8645140202906835825,0.18642134727417353224,67,67,-0.010722263716161251068,0,0
1.6854261683983759056e-05,2.998712404012915389,0.099236500663077584217,0.18721425124657742334,5.5168654990950862782,0.89252344749558076842,2.8645139956173246709,0.18643082811756611639,68,68,-0.010642246343195438385,0,0
1.6879473604175403888e-05,2.9986184643612170397,0.099242323964754589061,0.18728422442956552119,5.5168871657014539878,0.89252927478495269753,2.8645140205884040974,0.1864410358562665071,69,69,-0.010562229901552200317,0,0
1.6906626736458335082e-05,2.9985172616506936549,0.09924859593740731345,0.18735949763729731199,5.5169104295558852868,0.89253553403941132682,2.8645139959470919955,0.18645203242335034455,70,70,-0.010482212528586387634,0,0
1.6935870511341084279e-05,2.998408316943645513,0.099255350491884011821,0.18744046512777581825,5.5169355560375308301,0.89254229191480061179,2.8645140209876545079,0.18646387253575236187,71,71,-0.010402196086943149567,0,0
1.6967365862236287889e-05,2.9982909567540669826,0.099262625432386064617,0.18752754938314239452,5.5169625462459190857,0.89254955340777042405,2.864513996391896189,0.1864766271524707919,72,72,-0.010322178713977336884,0,0
1.700128610556063169e-05,2.9981646144174733948,0.099270460162609513999,0.18762120294451364866,5.5169916860799910197,0.89255739068556283478,2.8645140215231603698,0.18649036060707585571,73,73,-0.010242162272334098816,0,0
1.703781789761417149e-05,2.9980285210823867104,0.099278898457101735775,0.18772191036544369491,5.5170229987443066832,0.89256581468664120127,2.8645139969920543344,0.18650515431834877034,74,74,-0.010162144899368286133,0,0
1.7077162255740425099e-05,2.9978820084476773822,0.099287986094416774696,0.18783019023557873117,5.5170567939559163051,0.89257490397451322295,2.8645140222417628806,0.18652108377880372014,75,75,-0.010082128457725048065,0,0
1.7119535667153354522e-05,2.9977241973281931742,0.099297773769495861762,0.18794659732329335733,5.5170931205484299298,0.89258467637504845804,2.8645139978010805137,0.18653824252916736959,76,76,-0.010002111084759235382,0,0
1.7165171273594200256e-05,2.997554301716141012,0.099308314658632948491,0.18807172478677899874,5.5171323158850356094,0.89259521787441087337,2.8645140232063108776,0.18655671900882850323,77,77,-0.0099220946431159973145,0,0
1.7214320156252594897e-05,2.9973713148044516252,0.099319667478930659388,0.18820620650054228906,5.5171744585163633445,0.89260655428223434349,2.8645139988915722107,0.18657662080731482468,78,78,-0.0098420772701501846313,0,0
1.7267252709900784936e-05,2.9971743143256608377,0.099331893990561234697,0.18835071944401954314,5.5172199178920271478,0.89261878019745521939,2.864514024501391809,0.18659805138331528318,79,79,-0.0097620608285069465637,0,0
1.73242601318659673e-05,2.996962145899998653,0.09934506221032293749,0.18850598619667030542,5.5172688070219253476,0.89263193068491419879,2.8645140003606677226,0.18662113460838222756,80,80,-0.0096820434555411338806,0,0
1.738565601571832761e-05,2.9967337295947933384,0.09935924385782143875,0.1886727774826939541,5.5173215325962807754,0.8926461103365912475,2.8645140262405037745,0.18664599136261014745,81,81,-0.009602027013897895813,0,0
1.74517780766535825e-05,2.9964877404498091451,0.099374517730979619601,0.18885191480624283211,5.5173782475873069941,0.89266136494670911272,2.8645140023396624684,0.18667276438780619485,82,82,-0.0095220096409320831299,0,0
1.7522989999541132525e-05,2.9962229161964084589,0.099390967103706387431,0.1890442731158016032,5.5174394019022763302,0.89267781070056106962,2.8645140285762833443,0.18670159476905315299,83,83,-0.0094419931992888450623,0,0
1.7599683438158038226e-05,2.9959377347879572184,0.099408683272749501225,0.18925078353411683985,5.5175051948617843678,0.89269550583114465336,2.8645140050040089896,0.18673264711752846079,84,84,-0.0093619758263230323792,0,0
1.768228015786201527e-05,2.9956307232097825199,0.099427762915739181793,0.1894724360868833557,5.5175761265302680769,0.89271457997292202879,2.8645140317135178165,0.18676608594882260217,85,85,-0.0092819593846797943115,0,0
1.7771234351980248344e-05,2.9953001318277507892,0.099448311819720733307,0.18971028246103283088,5.517652449985047447,0.89273510577951775691,2.8645140085912190742,0.1868021012181320939,86,86,-0.0092019420117139816284,0,0
1.7867035125665895411e-05,2.9949442442096332329,0.099470442210106882475,0.18996543871938095793,5.5177347234956153343,0.89275722848572047763,2.8645140359282490472,0.18684088460818376598,87,87,-0.0091219255700707435608,0,0
1.7970209179501481477e-05,2.9945610480773070528,0.099494276673175049974,0.19023908799594096974,5.517823262495881842,0.89278103746338743907,2.8645140134188213921,0.18688265544325469159,88,88,-0.0090419091284275054932,0,0
1.8081323688346906956e-05,2.9941485460598671331,0.099519945467848439091,0.19053248309134840355,5.5179186928053258754,0.89280669604229045966,2.8645140415900307573,0.1869276369011647343,89,89,-0.0089618917554616928101,0,0
1.8200989409995080656e-05,2.9937044230088050156,0.099547590656176049295,0.19084694898537452046,5.5180214021923745804,0.89283431297591830944,2.8645140199149219384,0.18697608233665335975,90,90,-0.0088818753138184547424,0,0
