"epsilon","mach_number","pressure","rad_temp","rho","rhoE","rhou","temperature","GlobalNodeId","PedigreeNodeId","Points:0","Points:1","Points:2"
1.6531063916376861873e-05,2.9999332969113443603,0.099160876037802825334,0.18631021775173681188,5.5165846193536163256,0.89244788111838457834,2.8645140077129820355,0.18629824076881315587,1,1,-0.016003377735614776611,0,0
1.6531069128616948975e-05,2.9999325146331141667,0.099160924450882786951,0.18631023243762570574,5.5165847979778526167,0.892447928964647752,2.8645140063793230745,0.18629832569251644769,2,2,-0.015957653522491455078,0,0
1.6531083179320390288e-05,2.9999317376398719759,0.099160972675532657594,0.18631027202655020547,5.5165849777916973196,0.89244797775288264852,2.8645140077129274125,0.1862984102220279492,3,3,-0.015911931172013282776,0,0
1.6531106036333577966e-05,2.9999309611602194003,0.099161020724510606783,0.18631033642786754001,5.516585155087374126,0.89244802523211308465,2.8645140063792888796,0.18629849450653090948,4,4,-0.015866206958889961243,0,0
1.653113768609169271e-05,2.999930186685259681,0.099161068788385736683,0.18631042560328078816,5.5165853343272299725,0.8924480738566830107,2.8645140077131103773,0.18629857875336033879,5,5,-0.015820482745766639709,0,0
1.6531178133453783069e-05,2.9999294094735642346,0.099161116878030405863,0.18631053956637388946,5.516585511794768415,0.89244812137357354409,2.864514006379136557,0.18629866310845100141,6,6,-0.015774758532643318176,0,0
1.6531227401592247963e-05,2.9999286310356558793,0.099161165182830024456,0.18631067838229986577,5.51658569195018611,0.89244817023617217799,2.8645140077130903933,0.18629874777698651744,7,7,-0.015729034319519996643,0,0
1.6531285531906361405e-05,2.9999278466453227487,0.099161213712686741006,0.1863108421675366555,5.5165858710726594083,0.89244821819034292343,2.8645140063792422502,0.18629883290322510336,8,8,-0.01568331010639667511,0,0
1.6531352583989346626e-05,2.9999270578196362003,0.099161262656569978957,0.18631103108979293892,5.5165860536201911657,0.89244826768904395031,2.8645140077131223677,0.18629891869164258433,9,9,-0.015637585893273353577,0,0
1.6531428635618658919e-05,2.9999262598343729991,0.099161312024253656094,0.18631124536797974423,5.5165862358719905956,0.89244831647803968266,2.864514006379186295,0.18629900528625525924,10,10,-0.015591862611472606659,0,0
1.6531513782799214812e-05,2.9999254541988182865,0.099161362005183550927,0.18631148527233040713,5.5165864222882836643,0.89244836701078289476,2.864514007713118815,0.18629909289235865866,11,11,-0.015546138398349285126,0,0
1.6531608139829342052e-05,2.9999246361777776038,0.099161412609799104434,0.18631175112458434051,5.5165866091504600632,0.89244841703365462848,2.8645140063792076113,0.18629918165514572359,12,12,-0.015500415116548538208,0,0
1.6531711839419421816e-05,2.9999238072598619631,0.099161464028825668793,0.18631204329831915767,5.5165868009234602098,0.89244846900144259028,2.8645140077132342782,0.18629927178215655026,13,13,-0.015454690903425216675,0,0
1.6531825032833055223e-05,2.9999229626847454533,0.099161516274231698009,0.18631236221934557862,5.5165869938939442463,0.89244852066189683804,2.8645140063790748286,0.18629936342127881299,14,14,-0.015408966690301895142,0,0
1.653194789008101016e-05,2.9999221039078296513,0.099161569538813471025,0.18631270836625082876,5.5165871925355700611,0.89244857447204506418,2.8645140077131068246,0.18629945678364867589,15,15,-0.015363243408501148224,0,0
1.6532080600137794056e-05,2.9999212261303669358,0.099161623836917248132,0.18631308227100540353,5.5165873931441931077,0.89244862818205605848,2.8645140063793799179,0.18629955202131059933,16,16,-0.015317519195377826691,0,0
1.6532223371211399995e-05,2.9999203307604815905,0.099161679364218185961,0.18631348451971932456,5.516587600201641628,0.89244868425149637137,2.8645140077129678247,0.18629964935053325292,17,17,-0.015271794982254505157,0,0
1.653237643103611245e-05,2.9999194129480692972,0.099161736138278333552,0.18631391575346259448,5.5165878100187413224,0.89244874043408262132,2.864514006379350608,0.18629974892889722415,18,18,-0.01522607170045375824,0,0
1.6532540027219191095e-05,2.9999184740405429039,0.099161794358520904957,0.18631437666923736374,5.5165880270903011606,0.89244879919308350846,2.8645140077132720258,0.18629985097927415083,19,19,-0.015180347487330436707,0,0
1.6532714427611339299e-05,2.9999175091228482692,0.0991618540464863224,0.18631486802101637767,5.5165882477398131556,0.8924488582858886021,2.8645140063790832663,0.18629995566629123371,20,20,-0.015134623274207115173,0,0
1.6532899920732094235e-05,2.9999165194670847079,0.099161915406306172516,0.18631539062093568915,5.516588476483248904,0.89244892018087262908,2.8645140077132551504,0.18630006322095102322,21,21,-0.01508889906108379364,0,0
1.6533096816220001175e-05,2.9999155000795734161,0.099161978464362990349,0.18631594534055664902,5.5165887096604562245,0.89244898264009464572,2.8645140063793879115,0.1863001738164253851,22,22,-0.015043175779283046722,0,0
1.6533305445339108701e-05,2.9999144521431495569,0.099162043430283480783,0.18631653311228577041,5.5165889518060113872,0.89244904813719971859,2.8645140077130601952,0.18630028769341222539,23,23,-0.014997451566159725189,0,0
1.6533526161511559303e-05,2.999913370570708171,0.099162110336275130495,0.18631715493086767332,5.5165891992843070213,0.89244911444042551718,2.864514006379315525,0.18630040503519801343,24,24,-0.014951727353036403656,0,0
1.6533759340908181409e-05,2.9999122564410032332,0.099162179398384175943,0.18631781185504059373,5.5165894566528015375,0.89244918402966455506,2.8645140077131614476,0.18630052609376829276,25,25,-0.014906004071235656738,0,0
1.6534005383066884421e-05,2.9999111045581225987,0.099162250655538505817,0.18631850500926933067,5.5165897202998444016,0.89244925467976743416,2.8645140063791831864,0.18630065106422635801,26,26,-0.014860279858112335205,0,0
1.6534264711571016913e-05,2.9999099158817328359,0.099162324331181328496,0.18631923558564644772,5.5165899948120289409,0.89244932887823413825,2.86451400771323339,0.18630078021147039591,27,27,-0.014814555644989013672,0,0
1.6534537774757560708e-05,2.9999086850911442781,0.099162400471946243741,0.18632000484587643574,5.5165902766055197048,0.89244940440748055099,2.8645140063794301,0.18630091374414142757,28,28,-0.014768831431865692139,0,0
1.653482504648763271e-05,2.9999074130106881952,0.099162479309644113723,0.18632081412343451388,5.5165905702969908475,0.8924494837632962474,2.8645140077132262846,0.18630105194184193307,29,29,-0.014723108150064945221,0,0
1.6535127026949207862e-05,2.9999060941782129674,0.099162560899676330251,0.18632166482581494216,5.5165908723366188227,0.8924495647369539153,2.8645140063793004259,0.1863011950285367313,30,30,-0.014677383936941623688,0,0
1.6535444243524802753e-05,2.999904729265430614,0.09916264548331370221,0.18632255843696135522,5.5165911873767861096,0.89244964983379670986,2.864514007713447441,0.18630134330039466173,31,31,-0.014631659723818302155,0,0
1.6535777251694141695e-05,2.9999033126511722713,0.099162733125771077014,0.18632349651979415728,5.5165915119020292323,0.89244973685466233437,2.8645140063793359531,0.1863014969986570013,32,32,-0.014585936442017555237,0,0
1.6536126636004856477e-05,2.9999018448367977818,0.099162824078878678002,0.18632448071892820929,5.5165918506050228842,0.89244982831555585978,2.8645140077132542622,0.18630165643796980923,33,33,-0.014540212228894233704,0,0
1.6536493011081275501e-05,2.9999003200235190292,0.099162918418871884296,0.18632551276349634817,5.5165922000127221025,0.89244992202852502228,2.8645140063796357133,0.18630182187884636313,34,34,-0.01449448801577091217,0,0
1.6536877022704722824e-05,2.9998987385220332591,0.099163016409342816249,0.18632659447017260734,5.5165925648589313468,0.89245002052099187129,2.8645140077134558787,0.18630199365664065758,35,35,-0.014448764733970165253,0,0
1.6537279348935389586e-05,2.9998970943363381103,0.099163118138741707108,0.18632772774631062296,5.5165929417166621462,0.8924501216172515683,2.8645140063794065632,0.18630217205325891316,36,36,-0.014403040520846843719,0,0
1.6537700701309611688e-05,2.9998953875668106228,0.09916322388371857921,0.1863289145932927604,5.5165933353699792008,0.89245022785806460419,2.8645140077134798595,0.18630235742688946998,37,37,-0.014357316307723522186,0,0
1.6538141826082714458e-05,2.999893611998443621,0.09916333374625736774,0.18633015711000511239,5.5165937424408761913,0.89245033708104348769,2.8645140063796339369,0.18630255008321050525,38,38,-0.014311592094600200653,0,0
1.653860350555151569e-05,2.9998917674985263737,0.099163448017432279102,0.18633145749653465262,5.5165941677664260823,0.89245045184129945248,2.8645140077135926582,0.18630275040571861456,39,39,-0.014265868812799453735,0,0
1.6539086559426830722e-05,2.999889847611108884,0.099163566814157722007,0.18633281805800491759,5.5165946080247234562,0.89245056999145921939,2.8645140063796650232,0.18630295872624749731,40,40,-0.014220144599676132202,0,0
1.6539591846290426706e-05,2.9998878519467715442,0.099163690443401564245,0.18633424120864630624,5.5165950681117994492,0.892450694102503439,2.8645140077135295975,0.1863031754561617348,41,41,-0.014174420386552810669,0,0
1.6540120265106857833e-05,2.9998857737829252024,0.099163819038591380362,0.1863357294760183136,5.5165955447678758361,0.89245082204358083811,2.8645140063797400742,0.18630340095622052732,42,42,-0.014128697104752063751,0,0
1.6540672756825055558e-05,2.9998836124490453336,0.099163952924102308217,0.18633728550548120384,5.5165960429528881903,0.89245095640307103846,2.8645140077137885015,0.18630363566833282873,43,43,-0.014082972891628742218,0,0
1.6541250306040203858e-05,2.9998813609298458083,0.099164092251470187245,0.18633891206483374492,5.5165965594732719879,0.8924510950680857313,2.8645140063797032148,0.18630387998504197022,44,44,-0.014037248678505420685,0,0
1.6541853942751210619e-05,2.9998790182447905295,0.099164237364285659493,0.18634061204921645305,5.516597099362482659,0.89245124064634873129,2.8645140077138084855,0.18630413438187365394,45,45,-0.013991525396704673767,0,0
1.6542484744184410235e-05,2.9998765770584827628,0.099164388433906403009,0.18634238848619710804,5.5165976594997276905,0.89245139104476767233,2.8645140063798875119,0.18630439928615294409,46,46,-0.013945801183581352234,0,0
1.6543143836719323501e-05,2.9998740360510551817,0.099164545824929312134,0.18634424454113890368,5.5165982449955146549,0.89245154889199418413,2.8645140077138915302,0.18630467521026716771,47,47,-0.013900076970458030701,0,0
1.6543832397887174259e-05,2.9998713875348359537,0.09916470973052764204,0.18634618352276877129,5.5165988528115859069,0.89245171211673091083,2.8645140063799834351,0.18630496261973900074,48,48,-0.013854352757334709167,0,0
1.6544551658478510656e-05,2.9998686298197996258,0.099164880538236313545,0.18634820888904729541,5.5165994881430124863,0.89245188337066039264,2.8645140077141619805,0.18630526206719275062,49,49,-0.01380862947553396225,0,0
1.6545302904730837135e-05,2.9998657548332485767,0.099165058465054634063,0.18635032425325795402,5.5166001480390534084,0.8924520606061403516,2.8645140063800371699,0.18630557405995731846,50,50,-0.013762905262410640717,0,0
1.6546087480633048889e-05,2.9998627604787837519,0.099165243923696369532,0.18635253339041901732,5.516600837789964018,0.89245224650009613576,2.8645140077141983959,0.18630589919474499494,51,51,-0.013717181049287319183,0,0
1.6546906790317761219e-05,2.9998596382627953361,0.099165437157240604593,0.18635484024393564328,5.5166015545420261645,0.89245243903103099736,2.8645140063804586106,0.18630623802460391514,52,52,-0.013671457767486572266,0,0
1.6547762300578921845e-05,2.9998563856464617317,0.099165638605776026959,0.18635724893259741908,5.5166023036847757766,0.89245264090300702176,2.8645140077143622648,0.18630659119432119164,53,53,-0.013625733554363250732,0,0
1.654865554348598837e-05,2.9998529936751752167,0.099165848540956585966,0.18635976375783902537,5.5166030824732015247,0.89245285012325270557,2.8645140063807184028,0.18630695930695695406,54,54,-0.013580009341239929199,0,0
1.6549588119132617947e-05,2.9998494593269633413,0.099166067432796781156,0.18636238921137099345,5.5166038964068633277,0.89245306942573054965,2.8645140077147721591,0.18630734305980262144,55,55,-0.013534285128116607666,0,0
1.6550561698491419039e-05,2.9998457731448890939,0.09916629558404009559,0.18636512998309892608,5.5166047428549918052,0.89245329684853069718,2.8645140063806135977,0.18630774311046718883,56,56,-0.013488561846315860748,0,0
1.6551578026413298473e-05,2.9998419315780577854,0.09916653349750434443,0.18636799096943920673,5.5166056274420185446,0.89245353515871517214,2.8645140077148916191,0.18630816021365051438,57,57,-0.013442837633192539215,0,0
1.6552638924743231477e-05,2.9998379246223931816,0.099166781509811216533,0.18637097728195059498,5.5166065476615981922,0.8924537824281151277,2.8645140063811096454,0.18630859508640540412,58,58,-0.013397113420069217682,0,0
1.6553746295591682494e-05,2.9998337481506935909,0.099167040159460900783,0.18637409425639164806,5.5166075092697326454,0.89245404145930318229,2.8645140077153858904,0.18630904854602228782,59,59,-0.013351390138268470764,0,0
1.6554902124733745009e-05,2.9998293915603753135,0.099167309820157492628,0.18637734746212342163,5.5166085098983961288,0.89245431036121058987,2.8645140063814595877,0.1863095213745478429,60,60,-0.013305665925145149231,0,0
1.6556108485175960026e-05,2.9998248500970094987,0.099167591069269200865,0.18638074271196936049,5.5166095554481389129,0.8924545919753368306,2.8645140077156616698,0.18631001445740896783,61,61,-0.013259941712021827698,0,0
1.6557367540863257501e-05,2.9998201125056067617,0.099167884320923493924,0.18638428607245316471,5.5166106437017559116,0.89245488445104859121,2.8645140063819836129,0.18631052864750019538,62,62,-0.01321421843022108078,0,0
1.6558681550566661388e-05,2.999815173347633479,0.099168190194861421949,0.18638798387452759631,5.516611780716239366,0.89245519067210044017,2.8645140077163433467,0.18631106490456716962,63,63,-0.013168494217097759247,0,0
1.6560052871924619357e-05,2.9998100206564384251,0.099168509149291511617,0.18639184272471631676,5.516612964438002642,0.89245550883181745672,2.8645140063825254018,0.18631162415879101713,64,64,-0.013122770003974437714,0,0
1.6561483965679400809e-05,2.9998046482485873909,0.099168841850131556059,0.18639586951678346893,5.516614201096140313,0.8924558418602837051,2.8645140077169561899,0.18631220745085264046,65,65,-0.01307704579085111618,0,0
1.6562977400081864714e-05,2.999799043382171515,0.09916918880360375832,0.18640007144385434268,5.516615488815169499,0.89245618799862325154,2.8645140063830103472,0.18631281579511818625,66,66,-0.013031322509050369263,0,0
1.6564535855506837107e-05,2.9997931990614428166,0.099169550725982824613,0.18640445601110353091,5.5166168340117103241,0.89245655022742187423,2.8645140077175881288,0.18631345032053520105,67,67,-0.012985598295927047729,0,0
1.6566162129252955424e-05,2.9997871017004920091,0.099169928175777133372,0.18640903104893505327,5.5166182350037269444,0.89245692683994237715,2.8645140063836502797,0.18631411213316237396,68,68,-0.012939874082803726196,0,0
1.6567859140570097032e-05,2.9997807434184129427,0.099170321924118995383,0.18641380472677337998,5.5166196984122546354,0.89245732087162943369,2.8645140077183453009,0.186314802458097728,69,69,-0.012894150801002979279,0,0
1.6569629935888767524e-05,2.9997741097092496254,0.099170732586531251673,0.18641878556739022166,5.5166212227675028856,0.89245773067269851264,2.8645140063847112089,0.18631552250133945337,70,70,-0.012848426587879657745,0,0
1.6571477694295555467e-05,2.9997671917294450594,0.099171160993795012817,0.18642398246188898736,5.516622814909680983,0.89245815933810845877,2.8645140077191006966,0.18631627359263752686,71,71,-0.012802702374756336212,0,0
1.6573405733229672925e-05,2.9997599739703932897,0.099171607823598753595,0.18642940468527280373,5.5166244736027536533,0.8924586052803848979,2.8645140063856517898,0.1863170570468791476,72,72,-0.012756978161633014679,0,0
1.6575417514445667602e-05,2.9997524465395586368,0.099172073971734983622,0.18643506191271999595,5.5166262059278334817,0.89245907165940863148,2.8645140077204831464,0.18631787430780541448,73,73,-0.012711254879832267761,0,0
1.6577516650218057767e-05,2.9997445928373105417,0.099172560183491659247,0.18644096423649508809,5.516628010897875356,0.89245955695504208816,2.8645140063867700064,0.18631872680888492133,74,74,-0.012665530666708946228,0,0
1.6579706909834002426e-05,2.9997364018284518039,0.099173067425527561269,0.1864471221836207504,5.5166298958599577773,0.89246006439826597312,2.8645140077218882446,0.18631961611800079703,75,75,-0.012619806453585624695,0,0
1.6581992226350615079e-05,2.9997278557249855702,0.099173596516768630638,0.18645354673424086034,5.5166318600989336929,0.89246059254228682356,2.8645140063881213699,0.186320543797772048,76,76,-0.012574083171784877777,0,0
1.6584376703664148228e-05,2.999718942248576159,0.099174148500966743947,0.18646024934080263069,5.5166339112487188245,0.89246114469532222824,2.8645140077233515186,0.18632151155121468022,77,77,-0.012528358958661556244,0,0
1.6586864623868531127e-05,2.9997096423165650059,0.099174724277296247288,0.1864672419479892207,5.516636048892675781,0.89246171949062058637,2.8645140063896796789,0.1863225210816157329,78,78,-0.012482634745538234711,0,0
1.6589460454951778797e-05,2.9996999422977110861,0.099175324973405684648,0.18647453701353386424,5.5166382809755720729,0.89246232032034100712,2.8645140077249857669,0.18632357423909223781,79,79,-0.012436911463737487793,0,0
1.6592168858808608613e-05,2.9996898216998975073,0.099175951575862508758,0.18648214752984848541,5.5166406074064155973,0.89246294590504016142,2.8645140063915870421,0.18632467288010251538,80,80,-0.01239118725061416626,0,0
1.6594994699619239396e-05,2.9996792654184165627,0.099176605303685022585,0.1864900870466004168,5.5166430364688974208,0.89246359972816891037,2.8645140077272146506,0.18632581901495251508,81,81,-0.012345463037490844727,0,0
1.6597943052573718963e-05,2.9996682514274874976,0.099177287238542480297,0.18649836969417246668,5.5166455684249537939,0.89246428060524507497,2.864514006393950929,0.18632701466682941027,82,82,-0.012299738824367523193,0,0
1.6601019212993154371e-05,2.999656763018466954,0.099177998698953995227,0.18650701020814239306,5.5166482119285564778,0.89246499211934249285,2.8645140077300745851,0.18632826202044058816,83,83,-0.012254015542566776276,0,0
1.6604228705828407152e-05,2.9996447764953093618,0.099178740870147857889,0.18651602395471908458,5.5166509676254600336,0.89246573318914812489,2.8645140063968268507,0.1863295632805430091,84,84,-0.012208291329443454742,0,0
1.6607577295589223584e-05,2.9996322734042659697,0.099179515178920957252,0.1865254269572748369,5.5166538445719837114,0.89246650750616274284,2.86451400773295628,0.1863309208216469004,85,85,-0.012162567116320133209,0,0
1.6611070996685521031e-05,2.9996192282312237332,0.099180322923286629022,0.18653523592391257901,5.5166568438343999148,0.89246731410177693178,2.8645140064000993441,0.18633233704616719573,86,86,-0.012116843834519386292,0,0
1.6614716084235609667e-05,2.999605620622793456,0.099181165647894600768,0.18654546827621065752,5.5166599749053064627,0.89246815678523450099,2.8645140077365591758,0.18633381453525382776,87,87,-0.012071119621396064758,0,0
1.6618519105324391975e-05,2.999591423085928632,0.099182044773537023086,0.18655614217908630947,5.516663239307709965,0.89246903471054994661,2.8645140064040028882,0.18633535590652566816,88,88,-0.012025395408272743225,0,0
1.662248689076814895e-05,2.9995766131994305859,0.099182961973188113469,0.18656727657192337388,5.5166666470109833043,0.89246995181528310237,2.8645140077409121382,0.18633696396607049572,89,89,-0.011979672126471996307,0,0
1.6626626567370537632e-05,2.9995611613173451815,0.099183918801233450502,0.18657889120090759283,5.5166702000336105272,0.89247090738682566258,2.8645140064085046205,0.18633864156571286474,90,90,-0.011933947913348674774,0,0
