"epsilon","mach_number","pressure","rad_temp","rho","rhoE","rhou","temperature","GlobalNodeId","PedigreeNodeId","Points:0","Points:1","Points:2"
1.3720181234293670827e-06,2.999943121707423721,0.0096485331899083363882,0.10000001682612168208,1.0000000000048805404,0.086836798706915588331,0.38043133131330353347,0.10000000000233449926,1,1,-0.023103788495063781738,0,0
1.3720181236335901144e-06,2.9999431208121762893,0.0096485331952889299284,0.10000001682984289986,1.0000000000403135303,0.08683679871214985968,0.38043133131258710655,0.10000000005455712826,2,2,-0.023086674511432647705,0,0
1.3720181241074804845e-06,2.9999431199243096202,0.0096485332006615125156,0.10000001683847781209,1.0000000000791808841,0.086836798717668653436,0.38043133131330347796,0.10000000010635329284,3,3,-0.023069560527801513672,0,0
1.3720181248503525196e-06,2.9999431190336358632,0.0096485332060144059912,0.10000001685201392876,1.0000000001144266903,0.086836798722875363499,0.38043133131258821678,0.1000000001583075393,4,4,-0.023052446544170379639,0,0
1.3720181258616003797e-06,2.9999431181497788756,0.0096485332113625723455,0.10000001687044021703,1.0000000001531195171,0.086836798728368913558,0.38043133131330125751,0.1000000002098680868,5,5,-0.023035332560539245605,0,0
1.3720181271407001746e-06,2.9999431172626573883,0.009648533216693974332,0.10000001689374712899,1.0000000001882181078,0.086836798733554668162,0.38043133131258766166,0.1000000002616143191,6,6,-0.023018218576908111572,0,0
1.3720181286872061535e-06,2.9999431163817531498,0.00964853322202423834,0.10000001692192653224,1.0000000002268063515,0.086836798739030648941,0.38043133131330525432,0.1000000003129997983,7,7,-0.023001104593276977539,0,0
1.3720181305007536685e-06,2.9999431154970928048,0.0096485332273405517017,0.10000001695497179321,1.0000000002617828176,0.086836798744200402456,0.3804313313125858298,0.10000000036460185426,8,8,-0.022983990609645843506,0,0
1.3720181325810564225e-06,2.999943114618138118,0.0096485332326589085677,0.10000001699287769386,1.000000000300289793,0.086836798749664365071,0.38043133131330331143,0.10000000041587203681,9,9,-0.022966876626014709473,0,0
1.3720181349279075278e-06,2.9999431137348646637,0.0096485332379667911734,0.10000001703564045941,1.0000000003352214062,0.086836798754826194369,0.38043133131258777269,0.10000000046739120074,10,10,-0.022949762642383575439,0,0
1.3720181375411776001e-06,2.9999431128568163629,0.0096485332432794407992,0.10000001708325773064,1.0000000003736735366,0.086836798760283551157,0.38043133131329998076,0.10000000051860771788,11,11,-0.022932648658752441406,0,0
1.372018140420817935e-06,2.9999431119738715346,0.0096485332485852694923,0.10000001713572861939,1.0000000004086053718,0.086836798765443867776,0.38043133131258860535,0.10000000057010557941,12,12,-0.022915536537766456604,0,0
1.3720181435668552139e-06,2.9999431110957237578,0.0096485332538983076961,0.10000001719305362524,1.0000000004470492865,0.086836798770900988642,0.38043133131329709418,0.1000000006213269399,13,13,-0.022898422554135322571,0,0
1.3720181469793959514e-06,2.9999431102121101311,0.0096485332592081436004,0.10000001725523467722,1.0000000004820230881,0.086836798776066134731,0.38043133131259060375,0.10000000067286214656,14,14,-0.022881308570504188538,0,0
1.3720181506586233182e-06,2.9999431093327713072,0.0096485332645282109038,0.10000001732227511986,1.0000000005205231801,0.086836798781530152858,0.38043133131330014729,0.10000000072415074492,15,15,-0.022864194586873054504,0,0
1.3720181546047982006e-06,2.9999431084474865727,0.0096485332698479468749,0.10000001739417969937,1.0000000005555575999,0.086836798786704832986,0.38043133131259121438,0.1000000007757824716,16,16,-0.022847080603241920471,0,0
1.3720181588182585646e-06,2.9999431075659277468,0.0096485332751812362406,0.10000001747095457749,1.0000000005941531711,0.086836798792181799089,0.38043133131330086893,0.10000000082719857908,17,17,-0.022829966619610786438,0,0
1.3720181632994205152e-06,2.999943106677958049,0.0096485332805169871789,0.10000001755260733149,1.0000000006292883992,0.086836798797372147241,0.38043133131258916046,0.10000000087898620882,18,18,-0.022812852635979652405,0,0
1.3720181680487753316e-06,2.9999431057931720268,0.0096485332858695666697,0.10000001763914692643,1.0000000006680187514,0.086836798802868070402,0.3804313313132982044,0.1000000009305887505,19,19,-0.022795738652348518372,0,0
1.3720181730668932786e-06,2.9999431049014559925,0.009648533291227844727,0.10000001773058374288,1.0000000007033229554,0.086836798808081538947,0.38043133131259060375,0.10000000098259298476,20,20,-0.022778624668717384338,0,0
1.3720181783544202189e-06,2.9999431040124746595,0.0096485332966055343401,0.10000001782692954921,1.00000000074221429,0.086836798813602150693,0.38043133131329615049,0.1000000010344396506,21,21,-0.022761510685086250305,0,0
1.3720181839120797303e-06,2.9999431031159873307,0.009648533301992502989,0.10000001792819752933,1.0000000007777329891,0.086836798818844665449,0.38043133131259254665,0.10000000108671978916,22,22,-0.022744396701455116272,0,0
1.3720181897406707767e-06,2.9999431022217826204,0.0096485333074014436455,0.1000000180344022549,1.00000000081682483,0.086836798824395655672,0.38043133131329287533,0.10000000113887033693,23,23,-0.022727282717823982239,0,0
1.3720181958410708843e-06,2.9999431013195150264,0.0096485333128232646238,0.10000001814555968538,1.0000000008526077622,0.086836798829674086142,0.38043133131259654345,0.10000000119148524935,24,24,-0.022710168734192848206,0,0
1.372018202214232965e-06,2.9999431004190602046,0.0096485333182696302046,0.10000001826168720964,1.0000000008919418537,0.086836798835261394536,0.38043133131329082142,0.1000000012439994368,25,25,-0.022693054750561714172,0,0
1.3720182088611884933e-06,2.9999430995100135888,0.0096485333237322796346,0.10000001838280361821,1.0000000009280196611,0.086836798840581305714,0.38043133131259865287,0.10000000129700802043,26,26,-0.022675940766930580139,0,0
1.3720182157830441177e-06,2.9999430986022774803,0.0096485333292222943274,0.10000001850892907551,1.0000000009676388579,0.086836798846211246672,0.38043133131328715768,0.1000000013499461049,27,27,-0.022658826783299446106,0,0
1.3720182229809844138e-06,2.9999430976854348785,0.009648533334731914865,0.10000001864008517538,1.000000001004058614,0.086836798851578911318,0.38043133131260031821,0.10000000140340732646,28,28,-0.022641712799668312073,0,0
1.3720182304562706137e-06,2.9999430967693627714,0.0096485333402719936774,0.10000001877629487168,1.0000000010440226461,0.086836798857258409856,0.3804313313132872687,0.10000000145682978736,29,29,-0.02262459881603717804,0,0
1.3720182382102425116e-06,2.9999430958437169892,0.0096485333458346637936,0.10000001891758258932,1.0000000010808254292,0.086836798862679878686,0.38043133131260559177,0.10000000151080251642,30,30,-0.022607484832406044006,0,0
1.372018246244315288e-06,2.9999430949183518713,0.0096485333514303908004,0.1000000190639741271,1.0000000011211356288,0.086836798868413000996,0.38043133131327988572,0.10000000156476712698,31,31,-0.022590370848774909973,0,0
1.3720182545599841677e-06,2.9999430939828886089,0.0096485333570523103969,0.10000001921549671324,1.0000000011583738413,0.086836798873895212902,0.38043133131260709057,0.10000000161931039966,32,32,-0.02257325686514377594,0,0
1.3720182631588195497e-06,2.9999430930471606693,0.0096485333627103955084,0.10000001937217897763,1.000000001199117694,0.086836798879690688113,0.38043133131328193963,0.10000000167387793071,33,33,-0.022556142881512641907,0,0
1.3720182720424720897e-06,2.9999430921008105599,0.0096485333683978737745,0.10000001953405099342,1.0000000012368217561,0.086836798885238805634,0.38043133131261247515,0.10000000172905408602,34,34,-0.022539028897881507874,0,0
1.3720182812126697346e-06,2.9999430911536717481,0.0096485333741244874023,0.10000001970114423544,1.0000000012780274616,0.08683679889110168526,0.38043133131328216168,0.10000000178428568309,35,35,-0.02252191491425037384,0,0
1.372018290671219206e-06,2.9999430901954671214,0.0096485333798832246394,0.10000001987349163568,1.0000000013162080315,0.086836798896720399088,0.38043133131260797875,0.10000000184015273019,36,36,-0.022504800930619239807,0,0
1.372018300420005152e-06,2.9999430892358693868,0.0096485333856848893436,0.10000002005112754166,1.0000000013579493086,0.086836798902658732247,0.38043133131328193963,0.10000000189610860901,37,37,-0.022487686946988105774,0,0
1.3720183104609933243e-06,2.9999430882647111218,0.0096485333915215989314,0.10000002023408774421,1.0000000013966703349,0.086836798908355425364,0.38043133131260803426,0.10000000195272974735,38,38,-0.022470572963356971741,0,0
1.3720183207962267665e-06,2.9999430872916281743,0.0096485333974044591027,0.10000002042240949129,1.0000000014389822667,0.086836798914375151748,0.38043133131328438212,0.10000000200947010975,39,39,-0.022453458979725837708,0,0
1.3720183314278304724e-06,2.9999430863064882047,0.0096485334033253340041,0.10000002061613150195,1.0000000014782814972,0.086836798920155930381,0.38043133131260964408,0.10000000206690573545,40,40,-0.022436346858739852905,0,0
1.372018342358007363e-06,2.9999430853189270607,0.0096485334092952148438,0.10000002081529391074,1.0000000015211731874,0.086836798926261532516,0.38043133131327888652,0.10000000212449000614,41,41,-0.022419232875108718872,0,0
1.3720183535890433685e-06,2.9999430843186649653,0.0096485334153072945668,0.10000002101993837877,1.0000000015611341109,0.08683679893213477885,0.38043133131261347435,0.10000000218280473419,42,42,-0.022402118891477584839,0,0
1.3720183651233034047e-06,2.9999430833155016352,0.0096485334213709719048,0.10000002123010798272,1.0000000016046595164,0.086836798938333001341,0.38043133131327688812,0.10000000224129777793,43,43,-0.022385004907846450806,0,0
1.3720183769632351853e-06,2.9999430822990995615,0.0096485334274801683868,0.10000002144584733965,1.0000000016452814666,0.086836798944302864833,0.3804313313126082563,0.10000000230055294814,44,44,-0.022367890924215316772,0,0
1.3720183891113673153e-06,2.9999430812793090873,0.0096485334336440069236,0.10000002166720250996,1.0000000016895020938,0.086836798950601618019,0.38043133131327322438,0.10000000236001456433,45,45,-0.022350776940584182739,0,0
1.372018401570312256e-06,2.999943080245619953,0.0096485334398573336517,0.10000002189422110832,1.0000000017308574574,0.086836798956675800842,0.3804313313126077567,0.10000000242027562436,46,46,-0.022333662956953048706,0,0
1.3720184143427639958e-06,2.9999430792080969965,0.0096485334461279843171,0.10000002212695222048,1.0000000017758157167,0.086836798963081593405,0.38043133131327327989,0.10000000248077051124,47,47,-0.022316548973321914673,0,0
1.3720184274315008027e-06,2.9999430781560332271,0.0096485334524518979321,0.10000002236544645873,1.0000000018179420191,0.08683679896926586872,0.38043133131260781221,0.10000000254210063277,48,48,-0.02229943498969078064,0,0
1.3720184408393845893e-06,2.9999430770996822204,0.009648533458835985635,0.10000002260975598967,1.0000000018636847621,0.086836798975785514654,0.38043133131327450114,0.10000000260369275307,49,49,-0.022282321006059646606,0,0
1.3720184545693626067e-06,2.9999430760281424746,0.009648533465277166557,0.10000002285993449258,1.0000000019066241919,0.086836798982086849108,0.38043133131260903346,0.10000000266615695355,50,50,-0.022265207022428512573,0,0
1.3720184686244655388e-06,2.9999430749517879136,0.0096485334717819250944,0.10000002311603720107,1.0000000019532355733,0.086836798988728730597,0.38043133131328649155,0.10000000272891289288,51,51,-0.02224809303879737854,0,0
1.3720184830078127963e-06,2.9999430738597219204,0.0096485334783463043429,0.10000002337812097242,1.0000000019969632614,0.086836798995149871994,0.38043133131260015167,0.10000000279257510727,52,52,-0.022230979055166244507,0,0
1.3720184977226074341e-06,2.9999430727622242721,0.0096485334849785910766,0.10000002364624414886,1.0000000020444852478,0.086836799001920775276,0.38043133131328710217,0.10000000285656172883,53,53,-0.022213865071535110474,0,0
1.3720185127721416576e-06,2.9999430716484272175,0.0096485334916737736793,0.10000002392046671018,1.0000000020891131047,0.086836799008472048689,0.3804313313125983198,0.10000000292148961134,54,54,-0.02219675108790397644,0,0
1.3720185281597940695e-06,2.9999430705286105336,0.0096485334984405830144,0.10000002420085024601,1.000000002137580779,0.086836799015378204891,0.38043133131329032182,0.10000000298677588773,55,55,-0.022179637104272842407,0,0
1.3720185438890332697e-06,2.9999430693919584279,0.0096485335052733014333,0.1000000244874579558,1.0000000021831418895,0.086836799022066035736,0.38043133131259565527,0.10000000305303591297,56,56,-0.022162523120641708374,0,0
1.3720185599634159495e-06,2.9999430682486636357,0.0096485335121815809373,0.10000002478035462106,1.0000000022326001048,0.086836799029114064563,0.38043133131329120999,0.10000000311968935962,57,57,-0.022145409137010574341,0,0
1.3720185763865900681e-06,2.9999430670879547733,0.0096485335191591296844,0.10000002507960673026,1.0000000022791524223,0.086836799035946127256,0.38043133131259315727,0.10000000318735133287,58,58,-0.022128295153379440308,0,0
1.3720185931622929466e-06,2.9999430659199997073,0.0096485335262160489694,0.10000002538528238172,1.0000000023296586882,0.086836799043143592103,0.38043133131329481822,0.10000000325544051993,59,59,-0.022111181169748306274,0,0
1.3720186102943555033e-06,2.9999430647339759837,0.0096485335333459758267,0.10000002569745139458,1.0000000023772532831,0.086836799050127144728,0.38043133131259243562,0.10000000332457753549,60,60,-0.022094067186117172241,0,0
1.3720186277866995006e-06,2.9999430635401380663,0.0096485335405588363439,0.10000002601618518394,1.0000000024288457912,0.086836799057480817954,0.38043133131329642804,0.10000000339417432216,61,61,-0.022076953202486038208,0,0
1.3720186456433413572e-06,2.9999430623276150953,0.0096485335478482918414,0.10000002634155698289,1.0000000024775335117,0.086836799064623090838,0.38043133131259021518,0.10000000346485542202,62,62,-0.022059839218854904175,0,0
1.372018663868390665e-06,2.9999430611066708607,0.0096485335552243724905,0.10000002667364164821,1.000000002530247567,0.086836799072139467248,0.38043133131329165408,0.10000000353603172298,63,63,-0.022042725235223770142,0,0
1.3720186824660533663e-06,2.9999430598663772152,0.0096485335626811767618,0.10000002701251582693,1.0000000025801001335,0.086836799079449550343,0.38043133131258827229,0.10000000360833079249,64,64,-0.022025611251592636108,0,0
1.3720187014406304824e-06,2.9999430586170721114,0.0096485335702281588982,0.10000002735825787303,1.0000000026340032377,0.086836799087137261921,0.38043133131329243124,0.10000000368115942451,65,65,-0.022008497267961502075,0,0
1.3720187207965212909e-06,2.9999430573477292583,0.0096485335778599880946,0.1000000277109479585,1.0000000026850752732,0.086836799094622607598,0.38043133131259160296,0.10000000375515057105,66,66,-0.021991383284330368042,0,0
1.3720187405382220543e-06,2.9999430560687581071,0.00964853358558573522,0.1000000280706680178,1.0000000027402242697,0.086836799102489453661,0.38043133131329875951,0.1000000038297073901,67,67,-0.021974269300699234009,0,0
1.372018760670329197e-06,2.9999430547691008364,0.0096485335933999844676,0.10000002843750178949,1.0000000027925315393,0.086836799110155599157,0.3804313313125888274,0.10000000390546565088,68,68,-0.021957157179713249207,0,0
1.3720187811975380342e-06,2.9999430534590949549,0.0096485336013126445781,0.10000002881153484402,1.0000000028489743897,0.086836799118208962689,0.38043133131329542884,0.10000000398183030159,69,69,-0.021940043196082115173,0,0
1.3720188021246465843e-06,2.9999430521277732353,0.0096485336093177238165,0.10000002919285459757,1.0000000029026130388,0.086836799126066524512,0.38043133131258949353,0.10000000405943323956,70,70,-0.02192292921245098114,0,0
1.3720188234565540856e-06,2.9999430507854305539,0.0096485336174250528607,0.10000002958155032595,1.000000002960388823,0.086836799134313441551,0.38043133131329087693,0.10000000413768220242,71,71,-0.021905815228819847107,0,0
1.3720188451982637501e-06,2.9999430494210792553,0.0096485336256292870277,0.10000002997771317848,1.0000000030154281294,0.086836799142371481897,0.38043133131259310176,0.10000000421720917076,72,72,-0.021888701245188713074,0,0
1.3720188673548831865e-06,2.9999430480450435255,0.0096485336339393896338,0.10000003038143624734,1.000000003074580146,0.086836799150819460325,0.38043133131328521479,0.10000000429742211816,73,73,-0.021871587261557579041,0,0
1.3720188899316258825e-06,2.99994304664625,0.009648533642351344794,0.10000003079281449825,1.0000000031310884996,0.086836799159086985878,0.38043133131259854185,0.10000000437895503747,74,74,-0.021854473277926445007,0,0
1.3720189129338122638e-06,2.9999430452350965837,0.0096485336508727419236,0.10000003121194490918,1.0000000031916689291,0.086836799167744074812,0.38043133131327888652,0.10000000446121506958,75,75,-0.021837359294295310974,0,0
1.3720189363668709647e-06,2.9999430438004774935,0.0096485336595007204635,0.10000003163892637326,1.0000000032496960678,0.086836799176229134689,0.38043133131260115087,0.10000000454483504164,76,76,-0.021820245310664176941,0,0
1.3720189602363394629e-06,2.999943042352759548,0.0096485336682422730842,0.10000003207385979587,1.0000000033117848464,0.086836799185105256749,0.38043133131327616647,0.10000000462922598032,77,77,-0.021803131327033042908,0,0
1.3720189845478674683e-06,2.9999430408808942516,0.0096485336770947664753,0.10000003251684813632,1.0000000033713742909,0.086836799193815733533,0.38043133131260287172,0.10000000471501666044,78,78,-0.021786017343401908875,0,0
1.3720190093072152284e-06,2.9999430393951294072,0.0096485336860654431074,0.10000003296799632457,1.0000000034350446931,0.086836799202920172958,0.38043133131327544483,0.10000000480162413163,79,79,-0.021768903359770774841,0,0
1.3720190345202573402e-06,2.999943037884431174,0.0096485336951519697773,0.10000003342741142776,1.0000000034962721607,0.086836799211865267623,0.38043133131260770119,0.10000000488967659973,80,80,-0.021751789376139640808,0,0
1.3720190601929823267e-06,2.9999430363591716997,0.0096485337043604006702,0.10000003389520256691,1.000000003561560824,0.086836799221205893118,0.38043133131327150354,0.10000000497858638204,81,81,-0.021734675392508506775,0,0
1.3720190863314960248e-06,2.9999430348081719266,0.0096485337136898354643,0.10000003437148097252,1.0000000036244773849,0.08683679923039459847,0.38043133131260764568,0.10000000506898751307,82,82,-0.021717561408877372742,0,0
1.3720191129420205268e-06,2.9999430332418191014,0.0096485337231458460916,0.10000003485636003997,1.0000000036914875601,0.086836799239982734311,0.3804313313132733354,0.10000000516029114439,83,83,-0.021700447425246238708,0,0
1.3720191400308986273e-06,2.9999430316489763548,0.0096485337327272928387,0.10000003534995534349,1.0000000037561327382,0.0868367992494227664,0.3804313313126052587,0.10000000525313132438,84,84,-0.021683333441615104675,0,0
1.3720191676045917052e-06,2.999943030039953662,0.0096485337424404397921,0.10000003585238460835,1.0000000038249341472,0.086836799259268487861,0.38043133131327488972,0.10000000534692085608,85,85,-0.021666219457983970642,0,0
1.3720191956696854417e-06,2.9999430284036625594,0.0096485337522835470242,0.10000003636376783578,1.0000000038913736677,0.086836799268969228072,0.38043133131260170599,0.10000000544229351029,86,86,-0.021649105474352836609,0,0
1.372019224232886432e-06,2.9999430267503059966,0.0096485337622640079264,0.10000003688422723358,1.0000000039620602355,0.086836799279083803915,0.38043133131328266128,0.10000000553866504605,87,87,-0.021631991490721702576,0,0
1.3720192533010295966e-06,2.9999430250689416155,0.009648533772378444992,0.10000003741388732714,1.0000000040303393956,0.086836799289053953621,0.38043133131259776469,0.1000000056366658896,88,88,-0.021614877507090568542,0,0
1.3720192828810739466e-06,2.9999430233696542381,0.0096485337826357504137,0.10000003795287494557,1.0000000041029568632,0.086836799299446223999,0.38043133131328438212,0.10000000573571361795,89,89,-0.021597763523459434509,0,0
