"epsilon","mach_number","pressure","rad_temp","rho","rhoE","rhou","temperature","GlobalNodeId","PedigreeNodeId","Points:0","Points:1","Points:2"
1.3720181227655755258e-06,2.9999431216966518932,0.0096485331898900177083,0.10000001681402650999,0.99999999999657718242,0.086836798706229692546,0.38043133130999340352,0.10000000000297497305,1,1,-0.023103788495063781738,0,0
1.3720181230326710603e-06,2.9999431206686528739,0.0096485331962380786741,0.10000001681889335303,1.0000000000550430812,0.086836798713766649715,0.38043133131589640383,0.10000000006292140975,2,2,-0.023083698004484176636,0,0
1.3720181236709597257e-06,2.9999431196058314875,0.0096485332024988570282,0.10000001683052381352,1.0000000000837088177,0.086836798718838842381,0.38043133130999623459,0.10000000012494322799,3,3,-0.023063607513904571533,0,0
1.3720181246793575317e-06,2.9999431185840106373,0.009648533208809328271,0.10000001684889817111,1.0000000001418964946,0.086836798726337011134,0.38043133131589257356,0.10000000018452788464,4,4,-0.023043518885970115662,0,0
1.3720181260569515883e-06,2.999943117526362002,0.0096485332150388364997,0.10000001687399977246,1.0000000001703670538,0.086836798731378797567,0.38043133130999867708,0.10000000024624514094,5,5,-0.023023428395390510559,0,0
1.3720181278029636841e-06,2.9999431165089927021,0.0096485332213221610548,0.10000001690581446223,1.0000000002283533362,0.086836798738848877677,0.38043133131588990903,0.100000000305568576,6,6,-0.023003337904810905457,0,0
1.3720181299167837436e-06,2.9999431154548297229,0.0096485332275305472904,0.10000001694433108268,1.0000000002566948876,0.086836798743870222128,0.38043133131000100855,0.10000000036707981654,7,7,-0.022983247414231300354,0,0
1.3720181323979353109e-06,2.9999431144401866867,0.0096485332337971265598,0.10000001698954097407,1.0000000003145526062,0.086836798751322566425,0.38043133131588718898,0.10000000042624256069,8,8,-0.022963156923651695251,0,0
1.3720181352461087952e-06,2.9999431133878151634,0.0096485332399945857723,0.10000001704143850201,1.0000000003428297646,0.086836798756333502536,0.38043133131000173019,0.1000000004876469839,9,9,-0.022943066433072090149,0,0
1.3720181384611263198e-06,2.9999431123742570371,0.0096485332462543840076,0.1000000171000204191,1.0000000004006357468,0.086836798763778672017,0.38043133131588596774,0.10000000054674462735,10,10,-0.022922975942492485046,0,0
1.3720181420429756027e-06,2.9999431113219854339,0.0096485332524510573904,0.10000001716528650331,1.0000000004289122391,0.086836798768788789338,0.38043133131000134162,0.10000000060814095981,11,11,-0.022902885451912879944,0,0
1.3720181459917756519e-06,2.999943110307856653,0.0096485332587141498656,0.10000001723723891955,1.0000000004867450887,0.086836798776237539288,0.38043133131588713347,0.10000000066727005033,12,12,-0.022882796823978424072,0,0
1.3720181503078095883e-06,2.9999431092539641242,0.009648533264920360758,0.10000001731588283038,1.0000000005150961879,0.086836798781256732682,0.38043133131000295144,0.1000000007287577819,13,13,-0.02286270633339881897,0,0
1.3720181549914905521e-06,2.9999431082376117885,0.0096485332711966926428,0.10000001740122575755,1.0000000005730167452,0.086836798788718819186,0.38043133131588824369,0.10000000078801533909,14,14,-0.022842615842819213867,0,0
1.3720181600433957963e-06,2.9999431071804774085,0.0096485332774222404978,0.10000001749327822043,1.000000000601509953,0.086836798793757136172,0.38043133131000511638,0.10000000084968926894,15,15,-0.022822525352239608765,0,0
1.3720181654642308994e-06,2.9999431061602606086,0.0096485332837214603241,0.10000001759205306984,1.00000000065954886,0.086836798801240247525,0.38043133131587797413,0.10000000090917218754,16,16,-0.022802434861660003662,0,0
1.3720181712548661877e-06,2.9999431050982603431,0.0096485332899763649045,0.10000001769756619585,1.0000000006882798775,0.086836798806309470344,0.38043133131000556046,0.10000000097112661523,17,17,-0.02278234437108039856,0,0
1.372018177416299466e-06,2.9999431040724737763,0.0096485332963089937702,0.10000001780983573674,1.0000000007465539298,0.086836798813826054921,0.38043133131587936191,0.10000000103093227566,18,18,-0.022762253880500793457,0,0
1.3720181839496920166e-06,2.9999431030039880319,0.0096485333026027457481,0.10000001792888288388,1.0000000007755438514,0.086836798818933497168,0.38043133131000350655,0.10000000109326342979,19,19,-0.022742163389921188354,0,0
1.3720181908563340822e-06,2.9999431019709912327,0.0096485333089787843341,0.10000001805473111849,1.0000000008341405344,0.0868367988264944074,0.38043133131588408036,0.10000000115348674223,20,20,-0.022722074761986732483,0,0
1.3720181981376783245e-06,2.9999431008943573396,0.0096485333153212941848,0.10000001818740694715,1.0000000008634479798,0.086836798831649089636,0.38043133131000056446,0.10000000121629147587,21,21,-0.02270198427140712738,0,0
1.3720182057953065774e-06,2.9999430998525160597,0.009648533321750623476,0.10000001832693916626,1.0000000009224312425,0.086836798839264386918,0.38043133131588746654,0.10000000127702844688,22,22,-0.022681893780827522278,0,0
1.3720182138309635172e-06,2.9999430987661219739,0.0096485333281516785092,0.10000001847335956984,1.0000000009521297084,0.086836798844476564829,0.38043133130999862157,0.1000000013404008653,23,23,-0.022661803290247917175,0,0
1.3720182222465225688e-06,2.9999430977137762078,0.0096485333346442540836,0.10000001862670229724,1.0000000010115639437,0.086836798852155824835,0.38043133131589007556,0.10000000140174825081,24,24,-0.022641712799668312073,0,0
1.3720182310440210583e-06,2.9999430966159614798,0.009648533341113856715,0.10000001878700447155,1.0000000010417260388,0.086836798857435462673,0.38043133130999645664,0.10000000146578474913,25,25,-0.02262162230908870697,0,0
1.3720182402256261195e-06,2.9999430955514414521,0.0096485333476796792535,0.10000001895430557508,1.0000000011016743073,0.086836798865188122298,0.38043133131588979801,0.10000000152783986018,26,26,-0.022601531818509101868,0,0
1.3720182497936681518e-06,2.9999430944405771626,0.0096485333542277191415,0.10000001912864807385,1.0000000011323704197,0.086836798870545670037,0.3804313313099932925,0.10000000159263591759,27,27,-0.022581441327929496765,0,0
1.3720182597506086329e-06,2.9999430933622539541,0.0096485333608766123831,0.10000001931007683476,1.0000000011928944499,0.086836798878381568634,0.38043133131588746654,0.10000000165549442765,28,28,-0.022561352699995040894,0,0
1.3720182700990735768e-06,2.9999430922366765451,0.0096485333675132949061,0.10000001949863968065,1.0000000012242238334,0.086836798883828641982,0.38043133130999723379,0.10000000172114587027,29,29,-0.022541262209415435791,0,0
1.3720182808418207109e-06,2.9999430911428244251,0.0096485333742555405567,0.10000001969438687688,1.000000001285392015,0.086836798891757049912,0.38043133131588896534,0.10000000178490749125,30,30,-0.022521171718835830688,0,0
1.3720182919817735694e-06,2.9999430900008672296,0.0096485333809907727204,0.10000001989737168639,1.0000000013173979685,0.086836798897302433509,0.3804313313099972893,0.10000000185151265708,31,31,-0.022501081228256225586,0,0
1.3720183035219882473e-06,2.9999430888898506176,0.0096485333878362604387,0.10000002010764980076,1.0000000013792726961,0.086836798905333523191,0.3804313313158863008,0.1000000019162736592,32,32,-0.022480990737676620483,0,0
1.372018315465688552e-06,2.9999430877297936782,0.0096485333946804523186,0.10000002032527996465,1.0000000014120362657,0.086836798910987889055,0.38043133130999556846,0.10000000198393237116,33,33,-0.022460900247097015381,0,0
1.3720183278162319102e-06,2.9999430865999059392,0.0096485334016395713636,0.10000002055032335135,1.0000000014747028043,0.086836798919132845986,0.38043133131588646734,0.10000000204979188345,34,34,-0.022440809756517410278,0,0
1.3720183405771451554e-06,2.9999430854200745955,0.0096485334086028155809,0.10000002078284422891,1.0000000015082941562,0.086836798924906297148,0.3804313313099967897,0.10000000211860170241,35,35,-0.022420721128582954407,0,0
1.372018353752090011e-06,2.9999430842695833377,0.009648533415686019396,0.10000002102290930783,1.000000001571827335,0.086836798933175626813,0.38043133131589018658,0.10000000218566061638,36,36,-0.022400630638003349304,0,0
1.3720183673449001483e-06,2.9999430830682793925,0.0096485334227784016331,0.10000002127058843504,1.0000000016062924324,0.086836798939077058934,0.38043133130999395863,0.1000000022557214624,37,37,-0.022380540147423744202,0,0
1.3720183813595458222e-06,2.9999430818954291311,0.0096485334299962026428,0.10000002152595398319,1.0000000016707562001,0.086836798947480711708,0.3804313313158868004,0.10000000232408233491,38,38,-0.022360449656844139099,0,0
1.3720183958001711416e-06,2.9999430806708886621,0.0096485334372286395144,0.10000002178908144745,1.0000000017062098401,0.086836798953523253175,0.3804313313099972893,0.10000000239549589054,39,39,-0.022340359166264533997,0,0
1.3720184106710589168e-06,2.9999430794739248007,0.0096485334445916854512,0.10000002206004884875,1.0000000017716936807,0.086836798962072483943,0.38043133131589412788,0.10000000246526009884,40,40,-0.022320268675684928894,0,0
1.3720184259766679292e-06,2.9999430782243554638,0.0096485334519747136678,0.10000002233893746928,1.000000001808174499,0.086836798968264544696,0.3804313313099992877,0.10000000253813171036,41,41,-0.022300178185105323792,0,0
1.3720184417215986265e-06,2.9999430770015602654,0.0096485334594931995017,0.10000002262583110313,1.000000001874715938,0.08683679897696824912,0.38043133131589040863,0.10000000260940118679,42,42,-0.022280087694525718689,0,0
1.3720184579106291215e-06,2.9999430757251195345,0.0096485334670380635408,0.10000002292081681954,1.0000000019123225226,0.086836798983322194267,0.38043133130999712277,0.10000000268383753277,43,43,-0.022259999066591262817,0,0
1.3720184745486827933e-06,2.9999430744746549138,0.0096485334747232493618,0.10000002322398433841,1.0000000019800294737,0.086836798992193070523,0.38043133131589212947,0.10000000275671816485,44,44,-0.022239908576011657715,0,0
1.3720184916408625919e-06,2.9999430731695269081,0.0096485334824408901244,0.10000002353542664091,1.000000002018834433,0.086836798998719752496,0.38043133130999962077,0.10000000283282539648,45,45,-0.022219818085432052612,0,0
1.3720185091924194863e-06,2.9999430718895254699,0.0096485334903038868365,0.10000002385523941439,1.0000000020877637397,0.086836799007767778713,0.38043133131589168539,0.10000000290742667997,46,46,-0.02219972759485244751,0,0
1.372018527208788675e-06,2.9999430705538814301,0.0096485334982053631847,0.100000024183521663,1.0000000021278447893,0.086836799014478563419,0.38043133131000100855,0.1000000029853116007,47,47,-0.022179637104272842407,0,0
1.3720185456955544347e-06,2.9999430692424797762,0.0096485335062574135306,0.10000002452037516643,1.0000000021980777198,0.086836799023714994483,0.38043133131589090823,0.10000000306174193498,48,48,-0.022159546613693237305,0,0
1.3720185646584895065e-06,2.9999430678744092305,0.0096485335143541763742,0.1000000248659051183,1.0000000022395063581,0.086836799030620845374,0.3804313313099992877,0.10000000314151609448,49,49,-0.022139456123113632202,0,0
1.3720185841035193095e-06,2.9999430665297190934,0.0096485335226066774872,0.10000002522021946005,1.00000000231111974,0.086836799040057227606,0.38043133131588696694,0.10000000321988590513,50,50,-0.0221193656325340271,0,0
1.3720186040367602685e-06,2.9999430651272183113,0.0096485335309108768292,0.10000002558342967196,1.0000000023539978855,0.086836799047170842858,0.3804313313099992877,0.10000000330166505802,51,51,-0.022099277004599571228,0,0
1.3720186244644861449e-06,2.9999430637472839223,0.0096485335393756612582,0.1000000259556500376,1.0000000024270774279,0.086836799056819374831,0.38043133131588652285,0.10000000338208840656,52,52,-0.022079186514019966125,0,0
1.3720186453931648823e-06,2.9999430623084291092,0.009648533547898826071,0.10000002633699843491,1.0000000024714690294,0.086836799064151787286,0.38043133130999851055,0.10000000346598561518,53,53,-0.022059096023440361023,0,0
1.3720186668294253604e-06,2.9999430608912556195,0.0096485335565878755509,0.10000002672759564226,1.0000000025460895614,0.086836799074024098588,0.38043133131588285911,0.10000000354857922769,54,54,-0.02203900553286075592,0,0
1.3720186887800957237e-06,2.9999430594139688822,0.0096485335653426398256,0.10000002712756607404,1.0000000025921040869,0.086836799081588811333,0.38043133131000100855,0.10000000363471450715,55,55,-0.022018915042281150818,0,0
1.372018711252168229e-06,2.999943057957501491,0.0096485335742683437515,0.1000000275370371422,1.0000000026683584231,0.086836799091697350339,0.38043133131588391382,0.1000000037195974828,56,56,-0.021998824551701545715,0,0
1.3720187342528386332e-06,2.9999430564397693288,0.0096485335832667377953,0.10000002795613996409,1.0000000027160536042,0.086836799099505451727,0.38043133131000095304,0.10000000380808973799,57,57,-0.021978734061121940613,0,0
1.3720187577894716758e-06,2.9999430549418586445,0.0096485335924421291448,0.10000002838500873792,1.0000000027940505465,0.086836799109863860302,0.38043133131588763307,0.10000000389538628298,58,58,-0.02195864357054233551,0,0
1.3720187818696400432e-06,2.9999430533815538702,0.0096485336016968199085,0.10000002882378143665,1.0000000028434956612,0.086836799117926924407,0.38043133130999717828,0.10000000398635987275,59,59,-0.021938554942607879639,0,0
1.3720188065010900634e-06,2.9999430518400829193,0.0096485336111346124699,0.10000002927259922514,1.0000000029233102605,0.086836799128547567661,0.3804313313158843024,0.1000000040761942488,60,60,-0.021918464452028274536,0,0
1.3720188316917806698e-06,2.9999430502350805661,0.0096485336206585965019,0.10000002973160709852,1.0000000029746138885,0.086836799136880027383,0.38043133130999368108,0.10000000416977301854,61,61,-0.021898373961448669434,0,0
1.3720188574498493079e-06,2.9999430486477716151,0.0096485336303727044921,0.10000003020095335482,1.0000000030563818143,0.086836799147778254149,0.38043133131589257356,0.10000000426227587114,62,62,-0.021878283470869064331,0,0
1.3720188837836511107e-06,2.9999430469958028311,0.0096485336401794623284,0.10000003068079023338,1.0000000031096134556,0.086836799156392072141,0.3804313313099932925,0.10000000435859258963,63,63,-0.021858192980289459229,0,0
1.372018910701725229e-06,2.9999430453605202551,0.0096485336501825908623,0.10000003117127331809,1.0000000031933826694,0.086836799167579331593,0.38043133131589301765,0.10000000445389077564,64,64,-0.021838102489709854126,0,0
1.3720189382128340071e-06,2.9999430436592375848,0.0096485336602864339717,0.10000003167256227288,1.0000000032486762169,0.086836799176490078733,0.38043133130999512437,0.10000000455308037661,65,65,-0.021818011999130249023,0,0
1.372018966325928889e-06,2.9999430419736357045,0.0096485336705925874717,0.1000000321848202034,1.0000000033345239903,0.086836799187979318848,0.38043133131588918738,0.10000000465131135552,66,66,-0.021797921508550643921,0,0
1.3720189950501904413e-06,2.9999430402207658553,0.0096485336810073311919,0.10000003270821440637,1.0000000033919771436,0.086836799197201747225,0.38043133130999551295,0.10000000475350724616,67,67,-0.021777832880616188049,0,0
1.3720190243949936248e-06,2.9999430384824354867,0.0096485336916311194994,0.10000003324291568962,1.0000000034800229365,0.086836799209008178058,0.38043133131588907636,0.10000000485481047585,68,68,-0.021757742390036582947,0,0
1.3720190543699488752e-06,2.999943036675531971,0.0096485337023713806104,0.10000003378909916307,1.0000000035397225151,0.086836799218555957292,0.38043133130999440272,0.10000000496015548634,69,69,-0.021737651899456977844,0,0
1.3720190849848677987e-06,2.9999430348820319558,0.009648533713327496833,0.10000003434694362814,1.0000000036300653594,0.086836799230694233787,0.38043133131588685591,0.10000000506467333905,70,70,-0.021717561408877372742,0,0
1.3720191162498027705e-06,2.9999430330185448135,0.0096485337244087161085,0.10000003491663222999,1.000000003692139261,0.0868367992405832817,0.38043133130999651215,0.10000000517331469885,71,71,-0.021697470918297767639,0,0
1.372019148175013689e-06,2.999943031167377594,0.0096485337357121274404,0.10000003549835193017,1.0000000037848679746,0.086836799253067711857,0.38043133131588335871,0.10000000528119341869,72,72,-0.021677380427718162537,0,0
1.3720191807710082096e-06,2.9999430292448074908,0.0096485337471494143219,0.10000003609229417278,1.0000000038494143428,0.08683679926331352994,0.38043133130999717828,0.10000000539327791316,73,73,-0.021657289937138557434,0,0
1.3720192140485091342e-06,2.9999430273333276276,0.0096485337588161097094,0.10000003669865437095,1.0000000039446534927,0.086836799276160378525,0.3804313313158818044,0.10000000550467076643,74,74,-0.021637201309204101562,0,0
1.3720192480184918922e-06,2.9999430253490566578,0.009648533770625153036,0.10000003731763248971,1.0000000040117664746,0.086836799286778024176,0.38043133130999545743,0.10000000562035157858,75,75,-0.02161711081862449646,0,0
1.3720192826921555297e-06,2.9999430233745916219,0.0096485337826713226533,0.10000003794943260194,1.0000000041096379633,0.086836799300004180457,0.38043133131588158236,0.10000000573541417692,76,76,-0.021597020328044891357,0,0
1.3720193180809593437e-06,2.9999430213258873046,0.0096485337948686040327,0.10000003859426348507,1.0000000041794407935,0.086836799311010168245,0.38043133130999690072,0.10000000585484981885,77,77,-0.021576929837465286255,0,0
1.3720193541965917535e-06,2.9999430192856313404,0.009648533807311159699,0.10000003925233814928,1.0000000042800669675,0.086836799324632632513,0.38043133131588585671,0.10000000597374519851,78,78,-0.021556839346885681152,0,0
1.3720193910510111704e-06,2.9999430171696994663,0.0096485338199133931919,0.10000003992387447582,1.0000000043526535709,0.086836799336042699848,0.38043133130999612357,0.10000000609709948363,79,79,-0.02153674885630607605,0,0
1.3720194286564116924e-06,2.9999430150609041057,0.0096485338327689067206,0.10000004060909466197,1.0000000044561354606,0.086836799350078000548,0.38043133131588524609,0.10000000621998929307,80,80,-0.021516658365726470947,0,0
1.3720194670252652444e-06,2.9999430128747852642,0.0096485338457939686524,0.10000004130822595649,1.0000000045316512765,0.086836799361910396722,0.38043133130999567948,0.10000000634743298755,81,81,-0.021496567875146865845,0,0
1.3720195061702881203e-06,2.9999430106944600105,0.0096485338590805175968,0.10000004202150006294,1.000000004638123885,0.086836799376377116211,0.38043133131588813267,0.10000000647449110158,82,82,-0.021476479247212409973,0,0
1.3720195461044818522e-06,2.9999430084352085579,0.0096485338725461160247,0.1000000427491539029,1.0000000047166790473,0.08683679938864917458,0.38043133130999545743,0.1000000066061966647,83,83,-0.021456388756632804871,0,0
1.372019586841102294e-06,2.9999430061803424863,0.0096485338862818317146,0.10000004349142899152,1.0000000048262622787,0.086836799403565353983,0.38043133131589002005,0.10000000673759899816,84,84,-0.021436298266053199768,0,0
1.3720196283936979496e-06,2.9999430038449026448,0.0096485339002063512381,0.10000004424857221463,1.0000000049079769138,0.086836799416295171183,0.38043133130999207125,0.10000000687374500929,85,85,-0.021416207775473594666,0,0
1.3720196707760801145e-06,2.9999430015123995652,0.0096485339144099530745,0.10000004502083523206,1.0000000050208086577,0.08683679943168000348,0.38043133131589168539,0.10000000700967179301,86,86,-0.021396117284893989563,0,0
1.3720197140023633224e-06,2.9999429990975112759,0.00964853392881305158,0.10000004580847521307,1.0000000051058313133,0.086836799444887369237,0.38043133130999123859,0.10000000715044712885,87,87,-0.02137602679431438446,0,0
1.3720197580869331573e-06,2.9999429966841297812,0.0096485339435040586714,0.10000004661175429521,1.0000000052220454627,0.086836799460760241698,0.38043133131589529361,0.10000000729108726727,88,88,-0.021355936303734779358,0,0
1.3720198030444873349e-06,2.9999429941865556337,0.0096485339584051494494,0.10000004743094029203,1.0000000053104931563,0.086836799474463780002,0.38043133130998707525,0.100000007436681429,89,89,-0.021335845813155174255,0,0
