"epsilon","mach_number","pressure","rad_temp","rho","rhoE","rhou","temperature","GlobalNodeId","PedigreeNodeId","Points:0","Points:1","Points:2"
1.6531084446328346088e-05,2.9999332876510713675,0.099160876025501845654,0.18631027559644014469,5.5165845977708531933,0.89244787645735224046,2.8645139931686531831,0.18629824147456505723,1,1,-0.016003377735614776611,0,0
1.6531087177761325462e-05,2.9999327553293992921,0.099160910108436028931,0.18631028329245671871,5.516584766368461068,0.89244791926450328656,2.8645140209235697704,0.18629829981415005347,2,2,-0.015971371904015541077,0,0
1.6531094266811439941e-05,2.999932189387630288,0.099160944092703207087,0.18631030326638081673,5.5165848502336203296,0.8924479445228975516,2.8645139931686065538,0.18629836082982639822,3,3,-0.015939364209771156311,0,0
1.6531105699324643617e-05,2.9999316606953456699,0.099160977948370504498,0.18631033547832054342,5.5165850179992670377,0.89244798710136119535,2.8645140209236235052,0.18629841877052386034,4,4,-0.015907358378171920776,0,0
1.6531121466008968116e-05,2.9999310971573498463,0.099161011781332991655,0.1863103799020761342,5.5165851013138116343,0.89244801220697289601,2.8645139931685501544,0.18629847952052694393,5,5,-0.015875350683927536011,0,0
1.6531141561697397264e-05,2.9999305698289973066,0.099161045550155535455,0.18631043652306289449,5.5165852687682779276,0.89244805469717991553,2.8645140209236790163,0.18629853730856754668,6,6,-0.015843344852328300476,0,0
1.6531165986027594083e-05,2.9999300064439480273,0.099161079371323901377,0.18631050534022658427,5.5165853520496108686,0.8924480797895232298,2.8645139931684968637,0.18629859803752948921,7,7,-0.01581133715808391571,0,0
1.6531194742711846483e-05,2.999929478241505354,0.099161113192013844442,0.18631058636398625805,5.5165855197073376814,0.89244812233018455672,2.8645140209237300866,0.18629865591614538922,8,8,-0.015779331326484680176,0,0
1.6531227840228462987e-05,2.9999289127812076572,0.099161147139486524593,0.1863106796181822622,5.5165856034676528097,0.892448147547352022,2.8645139931684306944,0.18629871686622109794,9,9,-0.01574732363224029541,0,0
1.6531265291098606494e-05,2.9999283814846604557,0.09916118114963189123,0.18631078513803850383,5.516585771839012331,0.89244819027605670758,2.8645140209237900386,0.18629877507666969816,10,10,-0.015715317800641059875,0,0
1.6531307112589206263e-05,2.9999278117343504135,0.099161215360666493668,0.18631090297214283891,5.516585856587449932,0.89244821575529997837,2.8645139931683800683,0.18629883648853740041,11,11,-0.01568331010639667511,0,0
1.6531353325996493405e-05,2.9999272751324435049,0.099161249697302125683,0.18631103318042818717,5.5165860261807404541,0.89244825880906686333,2.8645140209238499907,0.18629889527110685132,12,12,-0.015651304274797439575,0,0
1.6531403957360354582e-05,2.9999266988815262991,0.099161284308888333894,0.18631117583618497791,5.5165861124254753634,0.89244828468735892812,2.8645139931683245571,0.18629895738497398439,13,13,-0.015619297511875629425,0,0
1.653145903675445403e-05,2.9999261547626772106,0.099161319109060966359,0.18631133102406080559,5.5165862837491150827,0.89244832820321795541,2.8645140209239068341,0.18629901697997053311,14,14,-0.015587290748953819275,0,0
1.6531518599011907008e-05,2.999925569795700131,0.099161354258480993717,0.18631149884210465584,5.5165863719994607806,0.89244835461782134889,2.8645139931682668255,0.18629908003655554216,15,15,-0.015555283986032009125,0,0
1.6531582683021978184e-05,2.9999250159389618808,0.099161389659808862884,0.18631167939978515724,5.5165865455640119563,0.89244839873336745395,2.8645140209239579043,0.18629914068528671822,16,16,-0.015523277223110198975,0,0
1.6531651332466993515e-05,2.9999244200266508287,0.099161425485192272733,0.18631187282006617112,5.5165866363324287391,0.89244842582238381734,2.8645139931681917744,0.1862992049267936101,17,17,-0.015491270460188388824,0,0
1.6531724595125560785e-05,2.9999238541927391033,0.099161461626422531257,0.1863120792374434731,5.5165868126528136983,0.89244847067634736071,2.8645140209240440576,0.18629926687254058648,18,18,-0.015459263697266578674,0,0
1.6531802523620777525e-05,2.999923245082995571,0.099161498267304248877,0.18631229880005212296,5.5165869064570216551,0.89244849857927477377,2.8645139931681335987,0.18629933254363603701,19,19,-0.015427256934344768524,0,0
1.6531885174729936427e-05,2.9999226650053247845,0.099161535288864288695,0.18631253166772115959,5.5165870860542201015,0.89244854431203612943,2.8645140209240969043,0.18629939603263190318,20,20,-0.015395250171422958374,0,0
1.6531972610144039462e-05,2.9999220404142450391,0.099161572886742613275,0.18631277801411297301,5.5165871834193556111,0.89244857317033998712,2.8645139931680674295,0.18629946338142069906,21,21,-0.015363243408501148224,0,0
1.6532064895784045778e-05,2.999921443789986153,0.099161610931299423721,0.18631303802479609599,5.5165873668228524451,0.89244861992453317079,2.864514020924170179,0.1862995286638190473,22,22,-0.015331236645579338074,0,0
1.6532162102571793655e-05,2.999920801392837344,0.099161649630193166027,0.18631331189941677251,5.5165874682833999643,0.89244864988218597368,2.8645139931680208001,0.18629959794282549557,23,23,-0.015299229882657527924,0,0
1.6532264305752824771e-05,2.9999201858738206994,0.099161688843213288691,0.18631359984979012356,5.5165876560330149303,0.89244869780322599873,2.8645140209242434537,0.18629966527369026807,24,24,-0.015267223119735717773,0,0
1.653237158567879192e-05,2.9999195232960484958,0.099161728790219658136,0.18631390210210402314,5.5165877621348533566,0.89244872900727134635,2.8645139931679519663,0.18629973674083735724,25,25,-0.015235216356813907623,0,0
1.6532484027137029048e-05,2.9999188864796728637,0.099161769320534706718,0.18631421889502908229,5.5165879547829668184,0.89244877824393964438,2.8645140209242976326,0.18629980638113038949,26,26,-0.015203209593892097473,0,0
1.6532601720144566714e-05,2.9999182012875991177,0.099161810666406766113,0.18631455048195508239,5.516588066085697406,0.89244881084507621249,2.8645139931678840206,0.18629988030074606797,27,27,-0.015171202830970287323,0,0
1.6532724759284559703e-05,2.9999175407073881416,0.099161852666797223321,0.18631489712912033263,5.5165882641994317126,0.89244886155009139905,2.8645140209243589169,0.18629995251835004821,28,28,-0.015139196068048477173,0,0
1.6532853244512130456e-05,2.999916830398935641,0.09916189556651855419,0.18631525911788113237,5.5165883812784253237,0.89244889570325014461,2.8645139931678671452,0.18630002916217747178,29,29,-0.015107189305126667023,0,0
1.6532987280497810111e-05,2.9999161435153434141,0.099161939194282802679,0.18631563674286077958,5.5165885854415490641,0.89244894803383423287,2.8645140209244197571,0.18630010423290085941,30,30,-0.015075182542204856873,0,0
1.6533126977445413195e-05,2.9999154055104448879,0.099161983807658837797,0.18631603031425278405,5.5165887088899268065,0.8924489838987428314,2.8645139931678107459,0.18630018388114275019,31,31,-0.015043175779283046722,0,0
1.6533272450442742819e-05,2.9999146897009936197,0.099162029225227418805,0.1863164401559903316,5.5165889197055060222,0.89244903801725838921,2.8645140209244743801,0.18630026208978409108,32,32,-0.015011169016361236572,0,0
1.6533423820291723625e-05,2.9999139213317902453,0.09916207571749577343,0.18631686660808360889,5.5165890501366954268,0.89244907575907961306,2.8645139931677547906,0.18630034503216283404,33,33,-0.014979162253439426422,0,0
1.653358121286663203e-05,2.9999131738813415993,0.099162123093031712129,0.18631731002481050075,5.5165892682290040838,0.89244913183361207487,2.8645140209245312235,0.18630042667357421537,34,34,-0.014947155490517616272,0,0
1.653374475995677203e-05,2.9999123723821807808,0.099162171635480134135,0.18631777077708905344,5.516589406278890273,0.89244917162354475693,2.8645139931676864009,0.18630051321042034873,35,35,-0.014915148727595806122,0,0
1.6533914598632521868e-05,2.9999115904726560977,0.099162221143516124378,0.18631824925068987686,5.5165896322959104836,0.89244922982854235638,2.8645140209245854024,0.18630059859061995353,36,36,-0.014883141964673995972,0,0
1.6534090872100911843e-05,2.9999107529697837116,0.099162271914122759875,0.18631874584864493993,5.5165897786252937607,0.89244927184447586654,2.8645139931676264489,0.18630068903399185642,37,37,-0.014851135201752185822,0,0
1.6534273729079782163e-05,2.9999099336696106732,0.09916232373621537699,0.18631926098948245474,5.5165900132412142298,0.89244933236140633337,2.8645140209246893193,0.18630077847130865898,38,38,-0.014819128438830375671,0,0
1.6534463324666601576e-05,2.9999090571704480901,0.099162376920309464046,0.18631979510967275337,5.5165901685380518416,0.89244937678855285057,2.8645139931675456246,0.18630087314615828564,39,39,-0.014787121675908565521,0,0
1.6534659819721176868e-05,2.9999081974238928083,0.099162431245699775295,0.18632034866188723621,5.5165904124555407151,0.8924494398065615508,2.8645140209247950125,0.18630096697239653669,40,40,-0.014755114912986755371,0,0
1.6534863381748101947e-05,2.9999072788059923944,0.099162487036651314476,0.18632092211748207955,5.516590577437876064,0.89244948683818869917,2.8645139931674923339,0.18630106621776595932,41,41,-0.014723108150064945221,0,0
1.6535074184288391677e-05,2.9999063754217409894,0.09916254406296982904,0.18632151596478230271,5.5165908313906202309,0.89244955255478419787,2.8645140209248753926,0.1863011647794436676,42,42,-0.014691101387143135071,0,0
1.6535292407816062866e-05,2.999905411421364132,0.099162602662894491767,0.18632213071160494411,5.5165910068089818452,0.89244960239289805592,2.864513993167437711,0.18630126894970863716,43,43,-0.014659094624221324921,0,0
1.6535518239139092235e-05,2.9999044610608218697,0.099162662596889550315,0.18632276688356896877,5.5165912715646738818,0.89244967101470795701,2.8645140209249531082,0.18630137260932511101,44,44,-0.014627087861299514771,0,0
1.6535751872310654463e-05,2.9999034482608823993,0.099162724217394304649,0.18632342502665957817,5.5165914582048189985,0.89244972387078891352,2.8645139931673795353,0.18630148207550298323,45,45,-0.01459508109837770462,0,0
1.6535993508039932847e-05,2.9999024474260602702,0.099162787275681826826,0.1863241057055655403,5.5165917345678590067,0.89244979561430504145,2.864514020925046367,0.18630159121285627677,46,46,-0.01456307433545589447,0,0
1.653624335461848535e-05,2.9999013822437960997,0.099162852138629270504,0.18632480950628557692,5.5165919332536086372,0.89244985171007551461,2.8645139931673155864,0.18630170636394632888,47,47,-0.01453106757253408432,0,0
1.6536501627341487324e-05,2.9999003272645299312,0.099162918548484135783,0.18632553703449486471,5.5165922220680174703,0.89244992680244128458,2.8645140209251627184,0.18630182137752140936,48,48,-0.01449906080961227417,0,0
1.6536768549449808326e-05,2.9998992059384157471,0.099162986886802417796,0.18632628891819522088,5.5165924336641998238,0.8924499863706704117,2.8645139931672094491,0.18630194262192700805,49,49,-0.01446705404669046402,0,0
1.6537044351562289979e-05,2.9998980929590737254,0.099163056886982459126,0.18632706580611230196,5.5165927358167037298,0.89245006505050872292,2.8645140209252892838,0.18630206393033982293,50,50,-0.01443504728376865387,0,0
1.6537329272634156976e-05,2.999896911535250954,0.099163128945508688394,0.18632786837039130856,5.5165929612325017573,0.89245012833587589185,2.8645139931670966504,0.18630219169733983064,51,51,-0.014403040520846843719,0,0
1.6537623559400936563e-05,2.9998957365008371845,0.099163202787114101966,0.18632869730502646388,5.5165932776556765305,0.89245021085413711592,2.8645140209254518204,0.18630231974084554558,52,52,-0.014371033757925033569,0,0
1.6537927467353928787e-05,2.9998944908187872294,0.099163278823479181212,0.1863295533286043193,5.5165935178477845113,0.89245027811409549656,2.8645139931669825195,0.18630245448215004833,53,53,-0.014339026995003223419,0,0
1.6538241260196451997e-05,2.9998932494602970067,0.099163356770859856226,0.18633043718276745548,5.5165938495233355354,0.8924503647349641966,2.8645140209256214625,0.18630258972423688335,54,54,-0.014307020232081413269,0,0
1.6538565210837110952e-05,2.9998919351380064491,0.099163437056410674852,0.18633134963500719294,5.5165941054994780401,0.89245043624068876031,2.8645139931668883726,0.18630273191560087209,55,55,-0.014275013469159603119,0,0
1.653889960085909341e-05,2.9998906229570581061,0.099163519388117141173,0.18633229147716359742,5.5165944534618116535,0.8924505272425252711,2.8645140209257804464,0.18630287484465604675,56,56,-0.014243006706237792969,0,0
1.6539244721532035681e-05,2.9998892353751918094,0.099163604208893488257,0.18633326352826989902,5.5165947262841914522,0.89245060327985903381,2.86451399316674582,0.18630302498759820917,57,57,-0.014210999943315982819,0,0
1.6539600873295190236e-05,2.9998878476280115279,0.09916369121867181502,0.1863342666330908004,5.516595091624198588,0.89245069895621720324,2.8645140209258892483,0.18630317611864916083,58,58,-0.014178993180394172668,0,0
1.6539968366788708644e-05,2.9998863819133800845,0.099163780876434931555,0.18633530166502085268,5.5165953824136515493,0.89245077982673426398,2.8645139931666161459,0.18630333474224397561,59,59,-0.014146986417472362518,0,0
1.6540347522351561097e-05,2.9998849135937017962,0.099163872874286421166,0.18633636952466381409,5.5165957662827462826,0.892450880487421494,2.8645140209260655517,0.18630349461881284823,60,60,-0.014114979654550552368,0,0
1.6540738671073141372e-05,2.999883364601914959,0.099163967687588158717,0.18633747114278706447,5.5165960762222905345,0.89245096650945143768,2.8645139931665273281,0.18630366228157921316,61,61,-0.014082972891628742218,0,0
1.6541142154306863238e-05,2.9998818104231883552,0.099164065000866608024,0.18633860747894440135,5.5165964798360844767,0.89245107248158550561,2.8645140209262143216,0.18630383147761997442,62,62,-0.014050966128706932068,0,0
1.6541558324743053048e-05,2.999880172720223559,0.099164165306195220517,0.18633977952448965709,5.5165968101754296882,0.89245116399139090557,2.8645139931664180821,0.186304008769521523,63,63,-0.014018959365785121918,0,0
1.6541987545939215758e-05,2.9998785270967358585,0.099164268280784270693,0.18634098830124523616,5.5165972348186942398,0.89245127562063797377,2.8645140209264239317,0.1863041878914645233,64,64,-0.013986952602863311768,0,0
1.6542430193415262081e-05,2.9998767949396700772,0.099164374433754434723,0.18634223486457759944,5.5165975868783707625,0.89245137297357124417,2.8645139931662773058,0.18630437543600561479,65,65,-0.013954945839941501617,0,0
1.6542886654201497824e-05,2.9998750519667525261,0.099164483435288955371,0.18634352030211487339,5.5165980339091218454,0.89245149062532691531,2.8645140209266362064,0.18630456512491383458,66,66,-0.013922939077019691467,0,0
1.6543357327957286751e-05,2.9998732192832195942,0.099164595811919609147,0.18634484573688686604,5.5165984090857485,0.89245159419714925608,2.8645139931661618427,0.18630476358136255355,67,67,-0.013890932314097881317,0,0
1.6543842626537891483e-05,2.9998713727161847586,0.099164711227090515666,0.18634621232609463459,5.516598879940171507,0.89245171825784164188,2.8645140209268817877,0.18630496451521671997,68,68,-0.013858925551176071167,0,0
1.6544342975137778245e-05,2.9998694330828818977,0.099164830225133296371,0.18634762126431869689,5.5165992797110083856,0.89245182844602199967,2.8645139931660628108,0.18630517458094650318,69,69,-0.013826918788254261017,0,0
1.6544858811877505343e-05,2.999867476314826753,0.099164952463062672194,0.18634907378234355502,5.5165997759084870466,0.89245195932448295739,2.8645140209271002796,0.1863053874770585483,70,70,-0.013794912025332450867,0,0
1.6545390588972930175e-05,2.9998654229348287181,0.099165078503409803679,0.18635057115043726639,5.5166002018367841231,0.89245207654962499522,2.8645139931659491239,0.18630560989001249128,71,71,-0.013762905262410640717,0,0
1.6545938772343422613e-05,2.9998633489732902113,0.099165207997099907855,0.18635211467723469814,5.5166007249855280037,0.8924522146785569543,2.8645140209273081133,0.18630583550755766553,72,72,-0.013730898499488830566,0,0
1.6546503842808336308e-05,2.9998611746517425125,0.099165341525288205893,0.18635370571309198273,5.5166011787260478272,0.89245233938588253153,2.8645139931658167853,0.18630607104888746717,73,73,-0.013698891736567020416,0,0
1.6547086295717929332e-05,2.9998589760938987325,0.099165478733160061786,0.18635534564903208365,5.5166017305289019035,0.89245248522341258379,2.8645140209276029886,0.18630631019159846207,74,74,-0.013666884973645210266,0,0
1.6547686642178495691e-05,2.9998566732126641377,0.099165620220940775553,0.18635703592017796582,5.5166022138336394676,0.8924526178843199542,2.8645139931656884436,0.18630655968842038672,75,75,-0.013634878210723400116,0,0
1.654830540870747384e-05,2.9998543422190921959,0.099165765628454013991,0.18635877800476444155,5.5166027960936272478,0.8924527719155662675,2.8645140209278912025,0.18630681320744321705,76,76,-0.013602871447801589966,0,0
1.6548943138488790165e-05,2.9998519027098433654,0.099165915575464627651,0.18636057342765410816,5.5166033108182865874,0.89245291302933560385,2.8645139931655347887,0.18630707753575995178,77,77,-0.013570864684879779816,0,0
1.6549600391053683417e-05,2.9998494309768077848,0.099166069696841038783,0.18636242375941952654,5.5166039254454926066,0.89245307576817844986,2.8645140209282407007,0.18630734633265932931,78,78,-0.013538857921957969666,0,0
1.6550277743567879697e-05,2.9998468462924168243,0.099166228632374162077,0.18636433061994628346,5.5166044735557759893,0.89245322586370479101,2.8645139931653478271,0.18630762642047055122,79,79,-0.013506851159036159515,0,0
1.6550975790539809935e-05,2.9998442250225418881,0.099166392012411244683,0.18636629567758977721,5.5166051225736962849,0.89245339785456434534,2.8645140209285750998,0.18630791145042227552,80,80,-0.013474844396114349365,0,0
1.6551695145141340925e-05,2.9998414861069648829,0.099166560497286837528,0.18636832065287023408,5.5166057061526112548,0.89245355749227339714,2.8645139931651550924,0.18630820828099509123,81,81,-0.013442837633192539215,0,0
1.6552436438945134135e-05,2.9998387059781110864,0.09916673371328853237,0.18637040731770856961,5.5166063917055545573,0.89245373931205507212,2.8645140209289450262,0.18630851055616318157,82,82,-0.013410830870270729065,0,0
1.6553200323280782715e-05,2.9998358032342453683,0.099166912341842453071,0.18637255749921799453,5.5166070129606419314,0.89245390908585808809,2.8645139931650032139,0.18630882517152344557,83,83,-0.013378824107348918915,0,0
1.6553987469003175097e-05,2.9998328543667036605,0.099167096005651877988,0.18637477307902419743,5.5166077373211059864,0.89245410134597447094,2.8645140209293571409,0.18630914576462945242,84,84,-0.013346817344427108765,0,0
1.655479856788601327e-05,2.9998297776226756639,0.09916728540782478174,0.18637705599715850835,5.5166083985920444377,0.89245428188535114167,2.8645139931648504472,0.18630947926922925006,85,85,-0.013314810581505298615,0,0
1.6555634332423156446e-05,2.9998266495441603396,0.099167480167994967455,0.18637940825146767643,5.5166091641689041225,0.89245448523389614426,2.8645140209297701439,0.18630981931735379753,86,86,-0.013282803818583488464,0,0
1.6556495497261594136e-05,2.999823388017407666,0.099167681011561689686,0.18638183190161394798,5.516609867935937217,0.89245467720614124474,2.8645139931646785847,0.18631017288197462833,87,87,-0.013250797055661678314,0,0
1.655738281903792474e-05,2.9998200696262307119,0.099167887555640224506,0.18638432906857987925,5.5166106772829719418,0.89245489233018493458,2.8645140209302017986,0.1863105335905607951,88,88,-0.013218790292739868164,0,0
1.6558297077852934879e-05,2.9998166118854547868,0.09916810054856758927,0.18638690193878121315,5.5166114261757188686,0.89245509644275600181,2.8645139931645275944,0.18631090845644526777,89,89,-0.013186783529818058014,0,0
1.655923907714549313e-05,2.9998130914112710599,0.099168319605528534866,0.18638955276367241698,5.5166122820005991656,0.89245532407076089143,2.8645140209306849677,0.18631129110356386969,90,90,-0.013154776766896247864,0,0
