"epsilon","mach_number","pressure","rad_temp","rho","rhoE","rhou","temperature","GlobalNodeId","PedigreeNodeId","Points:0","Points:1","Points:2"
1.3720181203542800363e-06,2.9999431217056509169,0.0096485331899381372028,0.10000001677008947543,1.0000000000067674755,0.086836798707092113792,0.38043133131400896918,0.1000000000024546809,1,1,-0.023103788495063781738,0,0
1.3720181233838452028e-06,2.9999431177118531799,0.0096485332139677210811,0.1000000168252922067,1.0000000001676876416,0.086836798730682479563,0.3804313313118819484,0.1000000002354117512,2,2,-0.023026775568723678589,0,0
1.3720181318197254218e-06,2.9999431137622281085,0.0096485332378390981783,0.10000001697900522124,1.0000000003377589319,0.086836798754990895954,0.38043133131400691527,0.10000000046581401791,3,3,-0.022949762642383575439,0,0
1.3720181456376883514e-06,2.9999431098048092714,0.0096485332616464518363,0.10000001723078698335,1.0000000004971829615,0.086836798778357884854,0.38043133131188433538,0.10000000069661743596,4,4,-0.022872751578688621521,0,0
1.3720181648454932367e-06,2.9999431058445740206,0.0096485332855788270151,0.10000001758077885217,1.0000000006676894593,0.08683679880272492102,0.38043133131400563851,0.10000000092760837067,5,5,-0.022795738652348518372,0,0
1.3720181894826689879e-06,2.999943101829895209,0.0096485333097286202914,0.10000001802970111264,1.0000000008295044651,0.086836798826432970433,0.38043133131188422436,0.1000000011617218354,6,6,-0.022718725726008415222,0,0
1.3720182196201427558e-06,2.99994309776618584,0.0096485333342820160663,0.10000001857884614764,1.000000001004332173,0.086836798851418955936,0.38043133131400580504,0.10000000139871709215,7,7,-0.022641712799668312073,0,0
1.372018255360397692e-06,2.9999430936017104088,0.0096485333593322748086,0.10000001923008132454,1.0000000011724066162,0.08683679887602639702,0.38043133131188872076,0.10000000164153728666,8,8,-0.022564699873328208923,0,0
1.3720182968374750664e-06,2.9999430893418699284,0.0096485333850652547916,0.10000001998584905072,1.0000000013553902445,0.086836798902188913618,0.38043133131400336255,0.10000000188994245809,9,9,-0.022487686946988105774,0,0
1.3720183442175038743e-06,2.9999430849341224281,0.0096485334115795091253,0.10000002084917641865,1.0000000015336136805,0.086836798928258879249,0.38043133131188877627,0.10000000214692100764,10,10,-0.022410675883293151855,0,0
1.3720183976990692963e-06,2.9999430803833235792,0.0096485334390639127672,0.10000002182368189496,1.0000000017287304921,0.086836798956170829777,0.38043133131400419522,0.10000000241226510156,11,11,-0.022333662956953048706,0,0
1.3720184575141128819e-06,2.99994307563567153,0.0096485334676246498758,0.10000002291359176565,1.0000000019211205959,0.086836798984285229475,0.38043133131188927587,0.1000000026890372623,12,12,-0.022256650030612945557,0,0
1.3720185239286690451e-06,2.9999430706948926328,0.0096485334974573226663,0.10000002412375351424,1.0000000021324835231,0.086836799014542748187,0.38043133131400153069,0.10000000297709482622,13,13,-0.022179637104272842407,0,0
1.3720185972441440842e-06,2.9999430655053154204,0.0096485335286795783499,0.10000002545965915035,1.0000000023433031071,0.086836799045316992451,0.38043133131188971996,0.10000000327960875679,14,14,-0.022102624177932739258,0,0
1.3720186777984308766e-06,2.9999430600690515369,0.0096485335614965601209,0.10000002692746552679,1.0000000025753248423,0.086836799078556722864,0.38043133131400386215,0.10000000359653063442,15,15,-0.022025611251592636108,0,0
1.3720187659675821931e-06,2.9999430543279470562,0.0096485335960407696276,0.10000002853402478742,1.0000000028091200477,0.086836799112649687427,0.38043133131188783258,0.10000000393117659814,16,16,-0.02194860018789768219,0,0
1.3720188621673258275e-06,2.9999430482819313681,0.0096485336325307941713,0.10000003028691205331,1.0000000030665661122,0.086836799149560481292,0.38043133131400541647,0.10000000428362444682,17,17,-0.021871587261557579041,0,0
1.3720189668551535921e-06,2.9999430418697956569,0.0096485336711172979551,0.10000003219446339242,1.000000003328330056,0.086836799187692964574,0.3804313313118894424,0.10000000465736898214,18,18,-0.021794574335217475891,0,0
1.3720190805322675873e-06,2.9999430350885307739,0.0096485337120365294999,0.10000003426581133281,1.0000000036164053974,0.086836799229029246194,0.3804313313140020858,0.10000000505265939366,19,19,-0.021717561408877372742,0,0
1.372019203746118971e-06,2.9999430278733321131,0.009648533755461116343,0.10000003651093115897,1.0000000039116492268,0.086836799271997541783,0.38043133131188983098,0.10000000547319913557,20,20,-0.021640548482537269592,0,0
1.3720193370928226384e-06,2.9999430202175183524,0.0096485338016491801333,0.10000003894068482113,1.0000000042361867347,0.086836799318599763864,0.38043133131400574953,0.10000000591945093498,21,21,-0.021563535556197166443,0,0
1.3720194812201872699e-06,2.9999430120518932874,0.0096485338507996502855,0.10000004156687622436,1.0000000045710255581,0.086836799367289219109,0.38043133131188716645,0.10000000639537579006,22,22,-0.021486522629857063293,0,0
1.3720196368306467007e-06,2.9999430033655487549,0.0096485339031965339923,0.10000004440230457481,1.0000000049385149303,0.086836799420097088298,0.38043133131400463931,0.10000000690168227291,23,23,-0.021409511566162109375,0,0
1.3720198046848390586e-06,2.9999429940838955311,0.0096485339590709224417,0.10000004746082966078,1.0000000053198683236,0.086836799475506140644,0.38043133131188527907,0.10000000744264415931,24,24,-0.021332498639822006226,0,0
1.3720199856051113626e-06,2.9999429841910343342,0.0096485340187370642606,0.10000005075743566285,1.0000000057376392526,0.086836799535579198284,0.38043133131400236335,0.10000000801926303695,25,25,-0.021255485713481903076,0,0
1.3720201804797102185e-06,2.9999429736061293816,0.0096485340824636351559,0.10000005430830755104,1.0000000061733116397,0.086836799598836139635,0.3804313313118839468,0.10000000863617515556,26,26,-0.021178472787141799927,0,0
1.372020390266932704e-06,2.9999429623071387496,0.0096485341506019634689,0.10000005813090664941,1.000000006649710782,0.086836799667377478906,0.38043133131400780345,0.10000000929473924771,27,27,-0.021101459860801696777,0,0
1.3720206160000057018e-06,2.9999429502062389119,0.0096485342234625421504,0.10000006224405963429,1.000000007148549086,0.086836799739762562944,0.38043133131188433538,0.10000001000000209583,28,28,-0.021024446934461593628,0,0
1.372020858791966927e-06,2.9999429372740831212,0.0096485343014409714196,0.10000006666804737987,1.0000000076930133375,0.086836799818138216134,0.38043133131400724833,0.10000001075374513604,29,29,-0.020947435870766639709,0,0
1.3720211198413252248e-06,2.9999429234146197665,0.0096485343848973330327,0.1000000714247081951,1.0000000082651467892,0.086836799901113564948,0.38043133131188505702,0.10000001156149601611,30,30,-0.02087042294442653656,0,0
1.3720214004377708431e-06,2.9999429085901265779,0.0096485344742775393939,0.10000007653754174053,1.0000000088884715144,0.086836799990884380729,0.38043133131400574953,0.10000001242552408742,31,31,-0.020793410018086433411,0,0
1.3720217019687234206e-06,2.9999428926947988572,0.0096485345700005904074,0.10000008203182846056,1.0000000095454695259,0.086836800086119977915,0.38043133131188716645,0.10000001335192379437,32,32,-0.020716397091746330261,0,0
1.372022025925985431e-06,2.9999428756813522057,0.0096485346725697553744,0.10000008793475075042,1.0000000102599988505,0.086836800189071458589,0.38043133131400036495,0.10000001434352531748,33,33,-0.020639384165406227112,0,0
1.3720223739133047043e-06,2.999942857432815746,0.0096485347824718254578,0.10000009427553073482,1.0000000110150943922,0.086836800298479802085,0.38043133131188955343,0.10000001540707044445,34,34,-0.020562371239066123962,0,0
1.3720227476541078381e-06,2.9999428378904755554,0.0096485349002783851041,0.10000010108557122468,1.0000000118350240719,0.086836800416660087087,0.38043133131400247438,0.10000001654605640555,35,35,-0.020485360175371170044,0,0
1.3720231490002204017e-06,2.9999428169246789011,0.0096485350265528863761,0.10000010839861460388,1.0000000127033636943,0.086836800542431979988,0.38043133131189088569,0.10000001776796539621,36,36,-0.020408347249031066895,0,0
1.3720235799408368028e-06,2.9999427944634922127,0.0096485351619464993639,0.10000011625090618472,1.0000000136449396226,0.08683680067818948245,0.38043133131400236335,0.10000001907706367044,37,37,-0.020331334322690963745,0,0
1.3720240426125671579e-06,2.9999427703624923502,0.0096485353071117576501,0.10000012468137735311,1.0000000146439507187,0.086836800822841939129,0.38043133131189160734,0.10000002048169441549,38,38,-0.020254321396350860596,0,0
1.3720245393098244564e-06,2.9999427445346165122,0.0096485354627909771658,0.10000013373183481991,1.0000000157258381872,0.086836800978874362222,0.38043133131400314051,0.10000002198700704004,39,39,-0.020177308470010757446,0,0
1.3720250724963952433e-06,2.9999427168183498971,0.0096485356297395154929,0.10000014344717136905,1.0000000168755109886,0.086836801145297640159,0.38043133131188816565,0.10000002360233938015,40,40,-0.020100295543670654297,0,0
1.3720256448174535101e-06,2.9999426871089811542,0.0096485358088063428311,0.10000015387558483515,1.0000000181191912585,0.086836801324705864547,0.38043133131400591607,0.10000002533386817549,41,41,-0.020023284479975700378,0,0
1.3720262591128769008e-06,2.9999426552255785694,0.009648536000863435283,0.10000016506882068723,1.0000000194425262556,0.086836801516223499631,0.38043133131188672236,0.10000002719206610435,42,42,-0.019946271553635597229,0,0
1.3720269184311325453e-06,2.9999426210429995798,0.0096485362068832285221,0.10000017708242502079,1.0000000208726487205,0.086836801722570897133,0.38043133131400824753,0.10000002918429846954,43,43,-0.01986925862729549408,0,0
1.372027626044602216e-06,2.9999425843577771644,0.0096485364278731857585,0.10000018997602383442,1.0000000223961096335,0.086836801943005512139,0.38043133131188799911,0.10000003132235181502,44,44,-0.01979224570095539093,0,0
1.372028385465614543e-06,2.9999425450213150768,0.0096485366649471850792,0.10000020381361506006,1.0000000240410229502,0.086836802180390124106,0.38043133131400697078,0.10000003361495923837,45,45,-0.019715232774615287781,0,0
1.3720292004640804523e-06,2.9999425028042479013,0.0096485369192688148071,0.10000021866388991709,1.0000000257950365512,0.086836802434138785078,0.38043133131188738849,0.10000003607541571582,46,46,-0.019638219848275184631,0,0
1.3720300750859970237e-06,2.999942457530775819,0.009648537192115707456,0.10000023460057005931,1.0000000276873892702,0.086836802707276727897,0.38043133131400552749,0.10000003871403907729,47,47,-0.019561206921935081482,0,0
1.3720310136737366831e-06,2.9999424089418154082,0.0096485374848306795087,0.10000025170277716813,1.000000029706969773,0.086836802999398429725,0.38043133131188727747,0.1000000415458577735,48,48,-0.019484195858240127563,0,0
1.3720320208873951854e-06,2.999942356830259893,0.0096485377988797995513,0.10000027005542201641,1.0000000318843038638,0.086836803313715821284,0.38043133131400147517,0.10000004458301393895,49,49,-0.019407182931900024414,0,0
1.3720331017281349957e-06,2.9999423009026684461,0.0096485381358131974,0.10000028974962964223,1.0000000342097543626,0.086836803650032934332,0.38043133131188783258,0.10000004784253728463,50,50,-0.019330170005559921265,0,0
1.3720342615628036662e-06,2.9999422409159555158,0.0096485384973134073749,0.10000031088318793449,1.0000000367152901415,0.086836804011775528545,0.38043133131399820002,0.10000005133866911311,51,51,-0.019253157079219818115,0,0
1.3720355061507930398e-06,2.9999421765371638848,0.0096485388851689606049,0.10000033356103699145,1.0000000393929824316,0.086836804398988276521,0.38043133131188988649,0.10000005509073915666,52,52,-0.019176144152879714966,0,0
1.3720368416724220532e-06,2.9999421074815555421,0.0096485393013130520135,0.10000035789578616552,1.0000000422764774299,0.086836804815344892372,0.38043133131399720082,0.10000005911541892667,53,53,-0.019099131226539611816,0,0
1.3720382747598377693e-06,2.9999420333709299058,0.0096485397478070240168,0.10000038400827709895,1.0000000453597603922,0.086836805261164329295,0.38043133131188683338,0.1000000634346741718,54,54,-0.019022120162844657898,0,0
1.3720398125297358368e-06,2.9999419538724438894,0.0096485402268739386272,0.10000041202817977481,1.0000000486784887954,0.08683680574041019451,0.38043133131399475833,0.10000006806797960557,55,55,-0.018945107236504554749,0,0
1.3720414626189130039e-06,2.99994186855576217,0.0096485407408892047421,0.10000044209464024891,1.0000000522288097216,0.086836806253714635129,0.38043133131188383578,0.10000007304033985134,56,56,-0.018868094310164451599,0,0
1.3720432332219761781e-06,2.999941777032685053,0.0096485412924096451703,0.10000047435696764186,1.0000000560487138923,0.086836806805376615115,0.38043133131399942126,0.10000007837445543113,57,57,-0.01879108138382434845,0,0
1.3720451331322524233e-06,2.9999416788128940858,0.0096485418841716266009,0.10000050897537936245,1.0000000601367911024,0.086836807396385384816,0.38043133131188439089,0.10000008409882781002,58,58,-0.0187140684574842453,0,0
1.372047171785240268e-06,2.9999415734443695136,0.0096485425191169919834,0.10000054612179275215,1.0000000645337494554,0.08683680803142838911,0.3804313313140040842,0.10000009023987620205,59,59,-0.018637055531144142151,0,0
1.3720493593056865259e-06,2.9999414603677574398,0.009648543200397626321,0.10000058598068262139,1.0000000692409982683,0.086836808711906521285,0.3804313313118814488,0.10000009683012667239,60,60,-0.018560044467449188232,0,0
1.3720517065576484838e-06,2.9999413390575746519,0.009648543931398497267,0.10000062874999325613,1.000000074302367814,0.086836809442953966087,0.38043133131400280744,0.10000010390027885832,61,61,-0.018483031541109085083,0,0
1.3720542251986686471e-06,2.9999412088749486394,0.0096485447157503671789,0.10000067464212528123,1.0000000797225547799,0.086836810226448180039,0.38043133131188089369,0.10000011148749329837,62,62,-0.018406018614768981934,0,0
1.3720569277374477307e-06,2.9999410692098220643,0.0096485455573479834285,0.10000072388498620901,1.0000000855489259433,0.086836811068034258643,0.38043133131400769242,0.1000001196273994919,63,63,-0.018329005688428878784,0,0
1.3720598275961913661e-06,2.9999409193317112532,0.0096485464603737296219,0.1000007767231261141,1.0000000917899649622,0.08683681197013783104,0.38043133131188222595,0.10000012836249640158,64,64,-0.018251992762088775635,0,0
1.3720629391770460715e-06,2.9999407585332669157,0.0096485474293089672215,0.1000008334189478737,1.0000000984971080253,0.086836812938993368505,0.38043133131400685976,0.10000013773408641948,65,65,-0.018174979835748672485,0,0
1.3720662779338518371e-06,2.9999405859785399642,0.0096485484689714344497,0.10000089425401399723,1.000000105683259255,0.086836813977660604058,0.38043133131188316964,0.10000014779081142779,66,66,-0.018097968772053718567,0,0
1.3720698604486666804e-06,2.9999404008479908512,0.0096485495845184867519,0.10000095953044052521,1.0000001134045040097,0.086836815093049482539,0.38043133131400791447,0.10000015858051507223,67,67,-0.018020955845713615417,0,0
1.3720737045143496066e-06,2.9999402021844692179,0.0096485507814982069547,0.10000102957240121493,1.0000001216788108049,0.086836816288950027798,0.38043133131188600071,0.10000017015890230732,68,68,-0.017943942919373512268,0,0
1.3720778292227001036e-06,2.9999399890391007517,0.0096485520658471293082,0.10000110472773278414,1.0000001305676353702,0.086836817573049882024,0.38043133131400780345,0.10000018258135531801,69,69,-0.017866929993033409119,0,0
1.3720822550595081566e-06,2.9999397603152795355,0.0096485534439538413881,0.10000118536966601246,1.0000001400947837737,0.086836818949980756899,0.38043133131188699991,0.10000019591170647426,70,70,-0.017789917066693305969,0,0
1.3720870040060669108e-06,2.9999395149151442119,0.0096485549226523574518,0.10000127189867456801,1.0000001503278959092,0.086836820428325398047,0.38043133131400447278,0.10000021021402130672,71,71,-0.01771290414035320282,0,0
1.3720920996485760829e-06,2.9999392515815821447,0.0096485565092987914809,0.10000136474446731649,1.0000001612975126797,0.086836822013685477373,0.38043133131188983098,0.10000022556148638331,72,72,-0.01763589121401309967,0,0
1.3720975672950517774e-06,2.9999389690450901647,0.0096485582117608516967,0.10000146436811732653,1.0000001730783651954,0.086836823715672611934,0.38043133131400153069,0.10000024202817152374,73,73,-0.017558880150318145752,0,0
1.3721034341012531809e-06,2.9999386658639637382,0.0096485600385075222934,0.10000157126435497978,1.000000185708747269,0.086836825541005482898,0.38043133131189205143,0.10000025969802212034,74,74,-0.017481867223978042603,0,0
1.3721097292053207787e-06,2.9999383405709889594,0.0096485619985974008933,0.10000168596401962096,1.0000001992715921162,0.08683682750048238308,0.38043133131400386215,0.10000027865663042859,75,75,-0.017404854297637939453,0,0
1.3721164838727280436e-06,2.9999379915118047357,0.0096485641017809813114,0.10000180903669877996,1.0000002138140600128,0.086836829602103912662,0.38043133131189271756,0.10000029900033705066,76,76,-0.017327841371297836304,0,0
1.3721237316513282766e-06,2.9999376169917435497,0.0096485663584874783311,0.10000194109355116379,1.000000229428579912,0.086836831858038782128,0.38043133131400536096,0.10000032082799011068,77,77,-0.017250828444957733154,0,0
1.3721315085382105677e-06,2.9999372151115362151,0.0096485687799430144146,0.10000208279034442094,1.0000002461725021607,0.086836834277761579259,0.38043133131189221796,0.100000344250204945,78,78,-0.017173815518617630005,0,0
1.3721398531582435419e-06,2.999936783914559868,0.009648571378155456485,0.1000022348307055553,1.0000002641492089506,0.086836836875020431692,0.38043133131401063451,0.10000036938109586881,79,79,-0.017096804454922676086,0,0
1.3721488069561498208e-06,2.9999363212197467377,0.0096485741660486228077,0.10000239796961733763,1.000000283427733283,0.086836839660984044276,0.38043133131189255103,0.10000039634770530039,80,80,-0.017019791528582572937,0,0
1.3721584144021050593e-06,2.9999358247687508694,0.0096485771574487226576,0.10000257301716071467,1.0000003041240856927,0.086836842651219964262,0.38043133131401046798,0.10000042528173042067,81,81,-0.016942778602242469788,0,0
1.3721687232128434028e-06,2.9999352920560276026,0.009648580367234762048,0.10000276084253921505,1.0000003263208196991,0.086836845858850986168,0.38043133131189543761,0.10000045632912556159,82,82,-0.016865765675902366638,0,0
1.3721797845884061605e-06,2.9999347204759247987,0.0096485838113256165716,0.10000296237838761371,1.000000350148398498,0.08683684930153522108,0.38043133131401324354,0.10000048964183157196,83,83,-0.016788752749562263489,0,0
1.3721916534666737236e-06,2.9999341071494272093,0.0096485875068508721725,0.10000317862540390734,1.0000003757049586994,0.086836852994645899462,0.38043133131190076668,0.100000525387569969,84,84,-0.016711739823222160339,0,0
1.3722043887959763435e-06,2.9999334490708013945,0.0096485914721399328176,0.10000341065730983248,1.0000004031376106273,0.086836856958248290206,0.38043133131401324354,0.10000056374160008754,85,85,-0.016634728759527206421,0,0
1.3722180538281114154e-06,2.9999327429311346549,0.009648595726913346618,0.10000365962618214255,1.000000432562468955,0.086836861210309021497,0.38043133131190837171,0.10000060489669894415,86,86,-0.016557715833187103271,0,0
1.3722327164322416064e-06,2.9999319852641308515,0.0096486002922752684557,0.10000392676816316495,1.0000004641457678201,0.086836865773662424983,0.38043133131401724034,0.10000064905497160761,87,87,-0.016480702906847000122,0,0
1.3722484494322217036e-06,2.9999311722659012247,0.0096486051909292509104,0.10000421340959694816,1.0000004980243060171,0.086836870669259325073,0.38043133131191453344,0.10000069643804315733,88,88,-0.016403689980506896973,0,0
1.372265330968034349e-06,2.999930299939817413,0.0096486104471748840999,0.10000452097360304493,1.0000005343863784812,0.086836875923125417254,0.38043133131401718483,0.10000074727893065729,89,89,-0.016326677054166793823,0,0
