"epsilon","mach_number","pressure","rad_temp","rho","rhoE","rhou","temperature","GlobalNodeId","PedigreeNodeId","Points:0","Points:1","Points:2"
1.3720181358964282931e-06,2.9999431216955789736,0.0096485331900358819318,0.10000001705328820378,1.0000000000114186438,0.086836798707516940632,0.38043133131562500981,0.1000000000030026176,1,1,-0.023103788495063781738,0,0
1.3720181475722089002e-06,2.9999431136006839971,0.0096485332387130379878,0.10000001726603652275,1.0000000003347810917,0.086836798755094146696,0.38043133131026601879,0.10000000047516953428,2,2,-0.022949762642383575439,0,0
1.3720181812043777664e-06,2.9999431055670569002,0.0096485332872892817097,0.10000001787885957893,1.0000000006834965927,0.086836798804762846404,0.38043133131562512084,0.10000000094375527393,3,3,-0.022795738652348518372,0,0
1.3720182369856751213e-06,2.9999430973337584128,0.0096485333367891407824,0.10000001889526934085,1.0000000010126415262,0.086836798853155233724,0.38043133131026501959,0.1000000014238706797,4,4,-0.022641712799668312073,0,0
1.3720183156232485386e-06,2.9999430887838234305,0.0096485333884669313015,0.10000002032815091813,1.000000001382901571,0.086836798905918458069,0.38043133131562745231,0.10000000192244723474,5,5,-0.022487686946988105774,0,0
1.3720184183430066852e-06,2.9999430796532471355,0.0096485334433651561564,0.10000002219984197027,1.000000001749438594,0.08683679895970056184,0.38043133131026207749,0.10000000245477352889,6,6,-0.022333662956953048706,0,0
1.3720185469025331858e-06,2.9999430698155853392,0.0096485335027953946646,0.10000002454236793514,1.000000002173397462,0.086836799020208868538,0.38043133131563050542,0.10000000302832864896,7,7,-0.022179637104272842407,0,0
1.3720187036196915607e-06,2.9999430589859530372,0.0096485335679253429741,0.10000002739796326479,1.0000000026107431772,0.086836799084213045496,0.38043133131026118932,0.10000000365961843329,8,8,-0.022025611251592636108,0,0
1.3720188914100374004e-06,2.999943047010477315,0.0096485336402319567956,0.10000003081975313013,1.0000000031238049925,0.08683679915758771295,0.38043133131562861804,0.10000000435771749796,9,9,-0.021871587261557579041,0,0
1.3720191138408700794e-06,2.9999430335646106727,0.0096485337211217984954,0.10000003487273827207,1.000000003670206139,0.086836799237341319446,0.38043133131026263261,0.1000000051414415142,10,10,-0.021717561408877372742,0,0
1.3720193751954827459e-06,2.9999430184474777938,0.0096485338123547086109,0.10000003963496575943,1.0000000043141956674,0.086836799329629579813,0.3804313313156264531,0.10000000602260503135,11,11,-0.021563535556197166443,0,0
1.3720196805561702807e-06,2.9999430012735555096,0.0096485339157048703729,0.10000004519904139022,1.0000000050159991716,0.086836799431830744012,0.38043133131026735105,0.10000000702357361715,12,12,-0.021409511566162109375,0,0
1.3720200359000382518e-06,2.9999429817717331304,0.0096485340333548070407,0.10000005167387551741,1.0000000058427209737,0.086836799550519525037,0.3804313313156264531,0.10000000816025708672,13,13,-0.021255485713481903076,0,0
1.3720204482169782993e-06,2.9999429594699553725,0.0096485341676003748279,0.10000005918683262107,1.0000000067582455188,0.086836799683598309141,0.38043133131026790617,0.10000000946006189217,14,14,-0.021101459860801696777,0,0
1.372020925644450559e-06,2.9999429339982319753,0.0096485343212195946033,0.10000006788618714948,1.0000000078337591969,0.08683679983823507087,0.38043133131562079097,0.10000001094466151597,15,15,-0.020947435870766639709,0,0
1.3720214776293800336e-06,2.9999429047657635294,0.0096485344972240833644,0.10000007794407349271,1.0000000090381484519,0.086836800013050136071,0.38043133131026568572,0.10000001264838055681,16,16,-0.020793410018086433411,0,0
1.3720221151125647716e-06,2.999942871267171185,0.009648534699207319057,0.10000008955984593384,1.0000000104482085206,0.086836800216024356835,0.38043133131562001381,0.10000001460078324078,17,17,-0.020639384165406227112,0,0
1.3720228507470545135e-06,2.9999428327516319825,0.0096485349311452688059,0.10000010296405772992,1.0000000120395005077,0.086836800446743189763,0.38043133131026862781,0.10000001684552145553,18,18,-0.020485360175371170044,0,0
1.3720236991469013982e-06,2.9999427885310612218,0.009648535197732002397,0.10000011842299347253,1.0000000138964288965,0.086836800714285414249,0.38043133131562273386,0.10000001942280534184,19,19,-0.020331334322690963745,0,0
1.3720246771791716072e-06,2.9999427376405538581,0.0096485355042334481485,0.1000001362439897068,1.000000016003451675,0.086836801019526149714,0.38043133131026346527,0.10000002238876662397,20,20,-0.020177308470010757446,0,0
1.3720258042969665323e-06,2.9999426791475785059,0.0096485358568169192484,0.10000015678150266096,1.0000000184552373383,0.086836801373019634198,0.38043133131562389959,0.10000002579785811918,21,21,-0.020023284479975700378,0,0
1.37202710292816537e-06,2.9999426118021395027,0.0096485362624657670938,0.10000018044419126118,1.0000000212480602002,0.086836801777354519216,0.38043133131026535265,0.10000002972282973079,22,22,-0.01986925862729549408,0,0
1.3720285989194344989e-06,2.9999425343458652193,0.0096485367293106544945,0.10000020770300695194,1.0000000244901814384,0.086836802245047736704,0.38043133131562434368,0.10000003423712371109,23,23,-0.019715232774615287781,0,0
1.3720303220525800347e-06,2.9999424451499110411,0.0096485372666177873086,0.10000023910060161503,1.0000000281936873847,0.086836802780970528959,0.38043133131026879434,0.10000003943556887154,24,24,-0.019561206921935081482,0,0
1.3720323066351807279e-06,2.9999423425226123818,0.0096485378851283078866,0.10000027526208866979,1.0000000324848499211,0.086836803400246714846,0.38043133131562079097,0.10000004541686208226,25,25,-0.019407182931900024414,0,0
1.3720345921856663059e-06,2.9999422243325009063,0.0096485385971373707065,0.10000031690752475555,1.0000000373967596889,0.086836804110778126331,0.38043133131026696248,0.10000005230512457044,26,26,-0.019253157079219818115,0,0
1.3720372242179829606e-06,2.9999420883121787895,0.0096485394168548590382,0.10000036486620560161,1.0000000430796534001,0.086836804931153116494,0.38043133131561779336,0.10000006023260767096,27,27,-0.019099131226539611816,0,0
1.3720402551500355493e-06,2.9999419316636783961,0.0096485403605920967013,0.1000004200932166909,1.0000000495944201262,0.086836805873289207858,0.38043133131026801719,0.10000006936227739951,28,28,-0.018945107236504554749,0,0
1.372043745345344149e-06,2.9999417513553607861,0.009648541447163669002,0.10000048368841057966,1.0000000571231273394,0.08683680696037543445,0.38043133131562029137,0.10000007987092635053,29,29,-0.01879108138382434845,0,0
1.3720477643173828178e-06,2.9999415437056375922,0.0096485426982051997885,0.1000005569183472498,1.0000000657634953161,0.086836808209651367152,0.38043133131027145888,0.10000009197301987229,30,30,-0.018637055531144142151,0,0
1.3720523921117804521e-06,2.9999413046688259143,0.0096485441386413677012,0.10000064124147428624,1.0000000757398617157,0.086836809650412849493,0.38043133131562562044,0.10000010590445015946,31,31,-0.018483031541109085083,0,0
1.3720577209027921798e-06,2.999941029391936187,0.0096485457971659076282,0.1000007383372093217,1.000000087198742893,0.086836811306952588208,0.38043133131027184746,0.10000012194795504517,32,32,-0.018329005688428878784,0,0
1.3720638568268675582e-06,2.9999407124841357408,0.0096485477068089259972,0.10000085013934045808,1.0000001004205749666,0.086836813216669486715,0.38043133131562589799,0.10000014041782361029,33,33,-0.018174979835748672485,0,0
1.3720709220988920889e-06,2.9999403475396793084,0.0096485499056202066182,0.1000009788745740702,1.0000001156165805316,0.086836815413206563941,0.38043133131027312421,0.1000001616872915472,34,34,-0.018020955845713615417,0,0
1.3720790574440994889e-06,2.9999399273835658519,0.0096485524373803605719,0.1000011271068305535,1.0000001331415482309,0.086836817944707225814,0.38043133131562723026,0.10000018617463367343,35,35,-0.017866929993033409119,0,0
1.3720884249033363922e-06,2.9999394435519013413,0.0096485553525406959202,0.10000129778833728722,1.0000001532924869263,0.086836820857210020308,0.38043133131027639937,0.10000021437303960314,36,36,-0.01771290414035320282,0,0
1.372099211058217588e-06,2.9999388865034006812,0.0096485587091399167142,0.1000014943183653443,1.0000001765228128114,0.086836824213108190773,0.38043133131563361404,0.10000024683869584985,37,37,-0.017558880150318145752,0,0
1.3721116307498278757e-06,2.9999382450458944582,0.0096485625740685612012,0.10000172061094941833,1.0000002032432036003,0.086836828074869129579,0.38043133131027540017,0.1000002842238053441,38,38,-0.017404854297637939453,0,0
1.372125931355535623e-06,2.9999375065002888974,0.0096485670242730074697,0.10000198117276436205,1.0000002340379321453,0.086836832523787862992,0.38043133131563983129,0.10000032726743268707,39,39,-0.017250828444957733154,0,0
1.372142397718690214e-06,2.9999366560576294916,0.0096485721484367587691,0.10000228119288098738,1.0000002694683725046,0.08683683764410968231,0.38043133131028605831,0.10000037683257870236,40,40,-0.017096804454922676086,0,0
1.3721613578197145189e-06,2.9999356768781320071,0.0096485780485771159565,0.10000262664600825802,1.0000003102922061515,0.086836843542187514,0.38043133131565215477,0.10000043390080805283,41,41,-0.016942778602242469788,0,0
1.3721831893113139069e-06,2.9999345493582287858,0.0096485848422685396159,0.10000302441145060561,1.0000003572706623878,0.086836850331142939607,0.38043133131030287819,0.10000049961456861092,42,42,-0.016788752749562263489,0,0
1.3722083270381094908e-06,2.9999332511412353242,0.009648592664771667507,0.1000034824099628461,1.0000004113913680825,0.086836858150554391278,0.38043133131567691274,0.10000057527697187032,43,43,-0.016634728759527206421,0,0
1.3722372717004167964e-06,2.9999317562673835091,0.0096486016719618556553,0.10000400976139975362,1.0000004736804564143,0.086836867151822552668,0.38043133131033141092,0.10000066240093410941,44,44,-0.016480702906847000122,0,0
1.3722705998246864655e-06,2.9999300350651236791,0.0096486120431780834916,0.10000461696610446483,1.0000005454304790042,0.086836877518582281099,0.38043133131571649219,0.10000076271591151755,45,45,-0.016326677054166793823,0,0
1.3723089752493298905e-06,2.9999280531481815615,0.0096486239850727597428,0.10000531611381592578,1.0000006280187672125,0.086836889452982526927,0.38043133131038048278,0.10000087822596408216,46,46,-0.016172651201486587524,0,0
1.3723531623444608891e-06,2.9999257711465330267,0.0096486377354277359092,0.10000612112404688725,1.0000007231421457199,0.086836903197071324545,0.38043133131578249495,0.10000101122583368585,47,47,-0.016018627211451530457,0,0
1.372404041239176192e-06,2.9999231435026634252,0.0096486535682137903464,0.10000704802287810335,1.0000008326435922967,0.086836919020279373926,0.38043133131047063289,0.10000116437071525366,48,48,-0.015864601358771324158,0,0
1.3724626253492338435e-06,2.9999201179878784984,0.0096486717987008443348,0.10000811526145141073,1.0000009587559002266,0.086836937242100134537,0.38043133131589801366,0.10000134070485278137,49,49,-0.015710575506091117859,0,0
1.3725300815647345991e-06,2.9999166342347978187,0.0096486927901080227904,0.10000934408264371134,1.0000011039394347545,0.086836958221167340199,0.38043133131063006092,0.10000154374668550339,50,50,-0.015556551516056060791,0,0
1.3726077534892558211e-06,2.9999126229664443422,0.0096487169604443385335,0.10001075894296060365,1.0000012711376058405,0.086836982379655633379,0.38043133131610634701,0.10000177753419696447,51,51,-0.015402525663375854492,0,0
1.3726971882039763005e-06,2.9999080041817292042,0.0096487447912522276983,0.10001238799815392877,1.0000014636292720027,0.086837010194460356738,0.38043133131090572929,0.10000204673029258751,52,52,-0.015248500742018222809,0,0
1.3728001670790123792e-06,2.9999026860014015305,0.0096487768367577268769,0.10001426366191432105,1.0000016853000901484,0.086837042223900248739,0.38043133131647305367,0.10000235669049573062,53,53,-0.01509447488933801651,0,0
1.372918741256473874e-06,2.9998965623957176696,0.009648813735375063802,0.10001642324879968238,1.0000019405140485595,0.086837079101657957403,0.38043133131139289516,0.10000271359502678481,54,54,-0.014940449967980384827,0,0
1.373055272500875347e-06,2.9998895115204122774,0.0096488562219328461583,0.1000189097137860611,1.0000022344061048063,0.086837121566558664321,0.38043133131712242312,0.10000312454624807335,55,55,-0.014786425046622753143,0,0
1.3732124802415068766e-06,2.9998813928399465922,0.0096489051428243037545,0.10002177250308313949,1.0000025727788957042,0.086837170460151241747,0.38043133131224887711,0.10000359773600639435,56,56,-0.014632399193942546844,0,0
1.3733934957323295096e-06,2.9998720447848739035,0.0096489614723282175063,0.10002506853257221719,1.0000029624238089276,0.086837226760583571816,0.3804313313182538514,0.10000414258266870915,57,57,-0.014478374272584915161,0,0
1.3736019244191837504e-06,2.9998612810767122383,0.0096490263325766951336,0.10002886331305162193,1.0000034110509441465,0.086837291584997075566,0.38043133131375211908,0.1000047699450635208,58,58,-0.014324349351227283478,0,0
1.3738419177447335931e-06,2.9998488874836213292,0.0096491010153181202419,0.10003323224381981127,1.0000039276478343009,0.08683736622883748979,0.38043133132024670173,0.10000549231214578283,59,59,-0.014170323498547077179,0,0
1.374118255832382184e-06,2.9998346170894469864,0.0096491870082600367936,0.10003826209967854599,1.0000045224535767385,0.086837452174626461598,0.38043133131639444988,0.10000632407858370265,60,60,-0.014016298577189445496,0,0
1.3744364426837357699e-06,2.9998181858524413101,0.0096492860240605122374,0.10004405273958025258,1.0000052073675491648,0.086837551138494437075,0.38043133132375189787,0.10000728180432656711,61,61,-0.013862273655831813812,0,0
1.3748028157965973195e-06,2.9997992664777659577,0.0096494000351077906241,0.10005071906960187611,1.0000059959819236344,0.086837665087383233975,0.38043133132103990057,0.10000838457177496643,62,62,-0.013708247803151607513,0,0
1.3752246723737987191e-06,2.9997774823878584627,0.0096495313121117889249,0.10005839329705903951,1.000006904056875312,0.086837796295177557826,0.38043133132991274747,0.10000965433817175787,63,63,-0.01355422288179397583,0,0
1.3757104146470597922e-06,2.9997523997478570124,0.0096496824700514922252,0.10006722751813884598,1.0000079496303488913,0.086837947371064996838,0.38043133132920764483,0.10001111640075865949,64,64,-0.013400197029113769531,0,0
1.3762697171962075661e-06,2.9997235193291813538,0.0096498565195124556826,0.10007739668675542932,1.0000091535815629484,0.086838121328409900723,0.38043133134074141877,0.10001279987239505842,65,65,-0.013246172107756137848,0,0
1.376913719605774674e-06,2.9996902660920752304,0.0096500569274217042753,0.10008910201920460936,1.0000105398431249348,0.086838321627891568166,0.38043133134356049707,0.10001473828968186763,66,66,-0.013092147186398506165,0,0
1.37765524828021717e-06,2.9996519782567774293,0.0096502876853012224678,0.10010257489589691193,1.000012136081767089,0.086838552263287224764,0.38043133135977524883,0.10001697025209879688,67,67,-0.012938121333718299866,0,0
1.378509071843258984e-06,2.9996078936547365679,0.0096505533895921251364,0.10011808132978149144,1.0000139740460212145,0.08683881782418305384,0.38043133136879192513,0.10001954021949605034,68,68,-0.012784096412360668182,0,0
1.3794921951891888799e-06,2.9995571351020307027,0.0096508593323485318549,0.10013592707925174363,1.0000160904025838793,0.086839123604195114781,0.38043133139323115355,0.10002249936810604647,69,69,-0.012630071491003036499,0,0
1.3806241980468094416e-06,2.9994986924774909021,0.0096512116075180669206,0.10015646349312917751,1.0000185272637134304,0.086839475689610673426,0.38043133141313822954,0.10002590663889671108,70,70,-0.0124760456383228302,0,0
1.3819276247749924749e-06,2.9994314032026068162,0.0096516172314020671347,0.10018009418486119311,1.0000213332301373104,0.086839881097375962171,0.3804313314520348932,0.10002982988118842844,71,71,-0.012322020716965198517,0,0
1.383428433151047654e-06,2.9993539286726615956,0.0096520842833289870188,0.10020728264404896168,1.0000245641566745114,0.086840347898090641809,0.3804313314910924837,0.1000343472333170558,72,72,-0.012167995795607566833,0,0
1.385156511057080273e-06,2.999264728266080926,0.0096526220655951504301,0.10023856090376856431,1.0000282844692991446,0.086840885393477978971,0.38043133155538955137,0.10003954864758889121,73,73,-0.012013969942927360535,0,0
1.3871462713412876295e-06,2.9991620283188744622,0.0096532412897151493453,0.10027453939340126576,1.0000325682468327315,0.086841504284910983613,0.38043133162810749415,0.10004553771113705585,74,74,-0.011859945021569728851,0,0
1.3894373366527865913e-06,2.9990437875881523766,0.0096539542887178111247,0.10031591811647265489,1.0000375009017574701,0.086842216903229532687,0.38043133173704363204,0.10005243367636346141,75,75,-0.011705920100212097168,0,0
1.3920753278553797668e-06,2.9989076563909864426,0.0096547752637986452434,0.10036349930253470053,1.000043180681290611,0.086843037437615830387,0.38043133186891786579,0.10006037386487452723,76,76,-0.011551894247531890869,0,0
1.3951127716459573278e-06,2.9987509307975965811,0.0096557205660382609824,0.10041820168855135342,1.0000497208311809327,0.086843982234820343846,0.38043133205629747762,0.10006951636779962134,77,77,-0.011397869326174259186,0,0
1.3986101453836797712e-06,2.998570498816421015,0.0096568090231065242118,0.10048107658924354535,1.0000572516533472456,0.086845070108019659094,0.38043133229213565993,0.10008004322197905367,78,78,-0.011243843473494052887,0,0
1.4026370798136899823e-06,2.9983627797529250891,0.0096580623130205125321,0.10055332591381060947,1.0000659233110325008,0.08684632272806400155,0.38043133261735873063,0.10009216399771804495,79,79,-0.011089818552136421204,0,0
1.4072737435047270278e-06,2.998123653369245023,0.0096595053969442505604,0.10063632227821486809,1.0000759086255710528,0.086847765038339713728,0.38043133303589427019,0.1001061199975543381,80,80,-0.01093579363077878952,0,0
1.4126124363622387653e-06,2.9978483797662218713,0.0096611670149599586377,0.10073163134313048439,1.0000874067334715178,0.086849425768001198289,0.38043133360330894099,0.10012218901926542292,81,81,-0.010781767778098583221,0,0
1.4187594237060732759e-06,2.9975315062301657321,0.0096630802594713533643,0.1008410364764229239,1.00010064686538791,0.086851337987329010892,0.38043133434284298611,0.10014069090819900654,82,82,-0.010627742856740951538,0,0
1.4258370470782959103e-06,2.9971667616281503221,0.0096652832327054731543,0.10096656578966174689,1.0001158931355627058,0.086853539782644248457,0.38043133533576400929,0.10016199387599984683,83,83,-0.010473717935383319855,0,0
1.4339861533727336847e-06,2.9967469341242130021,0.0096678198064339155443,0.10111052152812016747,1.0001334496265528173,0.086856074997837609541,0.38043133663920203347,0.10018652184379508996,84,84,-0.010319692082703113556,0,0
1.4433688900366805867e-06,2.996263732374286004,0.0096707404938183774007,0.10127551169579435131,1.0001536666854213831,0.086858994123583707636,0.38043133837954584697,0.10021476281899348304,85,85,-0.010165667161345481873,0,0
1.4541719212140783505e-06,2.9957076254076806521,0.0096741034559980360746,0.10146448366786114947,1.0001769477458399837,0.086862355285522982462,0.38043134067343270521,0.10024727860640594845,86,86,-0.010011642239987850189,0,0
1.4666101277856974511e-06,2.9950676608379489529,0.0096779756579444091436,0.1016807593753941974,1.0002037576308124844,0.086866225417438769352,0.38043134372636583374,0.10028471590549245529,87,87,-0.0098576163873076438904,0,0
1.4809308635743202284e-06,2.9943312559533628026,0.0096824342020743938558,0.10192807143893251043,1.000234631689575826,0.086870681576183259032,0.38043134775940962156,0.10032781914963971592,88,88,-0.009703591465950012207,0,0
1.4974188505573559726e-06,2.9934839607404795103,0.009687567860319833829,0.1022105993743390312,1.0002701867758330145,0.086875812491013171268,0.38043135311674686205,0.10037744519557850742,89,89,-0.0095495656132698059082,0,0
