"epsilon","mach_number","pressure","rad_temp","rho","rhoE","rhou","temperature","GlobalNodeId","PedigreeNodeId","Points:0","Points:1","Points:2"
1.6530963623830861886e-05,2.9999332820251578546,0.099160876282381335556,0.18630993516906868557,5.5165845961286947841,0.89244787573813300074,2.8645139906151437792,0.18629824201263336936,1,1,-0.016003377735614776611,0,0
1.6531019233943608667e-05,2.9999306447686517885,0.099161041063087707048,0.18631009185538877082,5.5165852544269142754,0.89244805122674653042,2.8645140234788173395,0.18629852936281823816,2,2,-0.015843344852328300476,0,0
1.6531180429430349761e-05,2.9999279610280669139,0.099161206017242958799,0.18631054603543203974,5.5165858193320520542,0.89244820543674341362,2.8645139906148626707,0.18629882019274829341,3,3,-0.01568331010639667511,0,0
1.6531448751374724991e-05,2.9999252475981532662,0.099161375462389941826,0.1863113020447186019,5.5165864951943603955,0.89244838555453143147,2.8645140234791948153,0.18629911571295129646,4,4,-0.015523277223110198975,0,0
1.6531828435992448781e-05,2.9999223518651962905,0.09916155349747975134,0.18631237180767920569,5.5165871088846190062,0.89244855280886137283,2.8645139906147587538,0.18629942947100577855,5,5,-0.015363243408501148224,0,0
1.6532326438588644345e-05,2.9999192894557045186,0.099161744511172239536,0.18631377490409276043,5.5165878650271098493,0.89244875445710636352,2.8645140234798427414,0.18629976280176258063,6,6,-0.015203209593892097473,0,0
1.6532952563381184217e-05,2.9999159012525495882,0.099161953004006930801,0.18631553893315050408,5.5165885919848998142,0.89244895212789254746,2.8645139906148178177,0.18630012995689107513,7,7,-0.015043175779283046722,0,0
1.6533719624965170135e-05,2.9999121947854234804,0.099162183865122335846,0.18631769996587321803,5.5165894962503623233,0.8924491935789463648,2.864514023480816185,0.18630053314838604384,8,8,-0.014883141964673995972,0,0
1.6534643720347193128e-05,2.9999079972710243069,0.099162442440441547764,0.1863203033080350346,5.5165904093253219642,0.8924494412822921996,2.8645139906152334852,0.18630098811017747895,9,9,-0.014723108150064945221,0,0
1.6535744539573331849e-05,2.9999033006316397909,0.099162734584922029857,0.18632340437049332849,5.5165915412975703447,0.89244974396137410899,2.8645140234824628678,0.18630149874730919657,10,10,-0.01456307433545589447,0,0
1.6537045798765239769e-05,2.999897910312344429,0.099163066991986834053,0.18632706988261268921,5.5165927286709361965,0.89245006543329497006,2.8645139906163237242,0.18630208315638419059,11,11,-0.014403040520846843719,0,0
1.6538575726120880675e-05,2.9998917938016562701,0.099163447029207915651,0.1863313792525484458,5.5165941871597912183,0.89245045593391492122,2.8645140234850976491,0.18630274789415798842,12,12,-0.014243006706237792969,0,0
1.6540367690088280701e-05,2.9998847249537718973,0.099163883345767811495,0.18633642632487792956,5.516595760527852832,0.89245088123315052808,2.8645139906184993173,0.18630351448639298484,13,13,-0.014082972891628742218,0,0
1.6542460903455258781e-05,2.9998766358508248686,0.099164385501625915142,0.18634232134784270429,5.5165976726418284315,0.89245139375900572887,2.8645140234897774612,0.18630439333332160512,14,14,-0.013922939077019691467,0,0
1.6544901298856897522e-05,2.9998672563139257008,0.099164964872457919687,0.18634919341771977175,5.5165997773850161678,0.89245196200384435681,2.8645139906226821935,0.18630541074124884471,15,15,-0.013762905262410640717,0,0
1.6547742513705271324e-05,2.9998564688941620204,0.099165634085783493923,0.18635719322372082396,5.5166023100306693649,0.89245264146316671816,2.8645140234978931915,0.18630658248811068911,16,16,-0.013602871447801589966,0,0
1.6551047087697881284e-05,2.9998439431857835125,0.09916640824705791335,0.18636649638125141193,5.5166051383045635603,0.89245340435366637966,2.8645139906309013966,0.18630794141984347023,17,17,-0.013442837633192539215,0,0
1.6554887816755907816e-05,2.9998294936543485889,0.099167304201196210256,0.1863773071918185531,5.5166085131608326719,0.89245431038803590962,2.864514023512003682,0.18630951070780393808,18,18,-0.013282803818583488464,0,0
1.6559349376139704922e-05,2.9998127082699959089,0.099168342109465623668,0.18638986314219815887,5.5166123210901352181,0.89245533683169708805,2.8645139906462815382,0.1863113320624034952,19,19,-0.013122770003974437714,0,0
1.656453016467334134e-05,2.9997933087676851294,0.099169544561932429505,0.18640444000104341993,5.5166168344077330943,0.89245654914222649623,2.8645140235370147863,0.18631343872653410854,20,20,-0.012962736189365386963,0,0
1.657054449509167283e-05,2.9997707729848039904,0.099170938543007500221,0.18642135785608751619,5.5166219649290209048,0.89245793139851092857,2.8645139906749670367,0.18631588437354262844,21,21,-0.012802702374756336212,0,0
1.6577525093601545397e-05,2.9997446969980021692,0.099172554429992870739,0.18644098797636354803,5.516628013923491558,0.8924595568451000327,2.864514023581138602,0.18631871589741166861,22,22,-0.012642668560147285461,0,0
1.6585626049583919965e-05,2.9997144103637691792,0.099174428396580707745,0.18646376088023652873,5.5166349273164652089,0.89246141873732776073,2.8645139907279539848,0.18632200308241761433,23,23,-0.012482634745538234711,0,0
1.6595026193881637605e-05,2.9996793393684533235,0.099176601345816059463,0.18649017552754998395,5.5166430455146082679,0.89246360084495357512,2.8645140236599027084,0.18632581127367431328,24,24,-0.01232260093092918396,0,0
1.6605933067448803265e-05,2.9996386141274915538,0.099179121816024284897,0.18652081006256579498,5.5166523603435608791,0.89246610877076604229,2.8645139908254506622,0.18633023193261735728,25,25,-0.012162567116320133209,0,0
1.661858747983980904e-05,2.9995914319035752449,0.099182044914496933496,0.18655633406841859445,5.5166632650278586425,0.8924690404879740413,2.8645140238008917066,0.18633535530260508795,26,26,-0.012002533301711082458,0,0
1.663326884681748708e-05,2.9995366546871133906,0.09918543581110766949,0.18659752281433364396,5.5166758131405471133,0.89247241820789913191,2.8645139910037795694,0.18634130200116971743,27,27,-0.011842499487102031708,0,0
1.6650301335254642597e-05,2.9994731711653996875,0.099189368762999163831,0.18664527350707840747,5.5166904691217677481,0.89247635905266553547,2.864514024054534147,0.18634819583681200283,28,28,-0.011682465672492980957,0,0
1.6670061041066754125e-05,2.9993994829624401888,0.099193931309009955588,0.18670062408992998959,5.516707369601622446,0.89248090757117626293,2.8645139913291344236,0.18635619663838345894,29,29,-0.011522431857883930206,0,0
1.6692984267363805614e-05,2.9993140633404733464,0.099199223508363812418,0.18676477465707269632,5.5167270749908015048,0.89248620668669620404,2.8645140245104325771,0.18636547343538437116,30,30,-0.011362398974597454071,0,0
1.6719577177048485525e-05,2.9992149296879135889,0.099205362986451176011,0.18683911209152370692,5.5167498336535896186,0.89249233099267355485,2.86451399192191003,0.18637623879111728242,31,31,-0.01120236515998840332,0,0
1.6750426939932138749e-05,2.9990999963659965566,0.099212484554260710334,0.18692523804924024433,5.5167763352820804457,0.89249945816243791974,2.8645140253321748069,0.18638872263450895206,32,32,-0.01104233134537935257,0,0
1.6786214713231208454e-05,2.9989666302493294125,0.099220746306840260087,0.18702500095394175572,5.5168069785729798582,0.89250770320273931091,2.8645139929996665806,0.18640320845283650519,33,33,-0.010882297530770301819,0,0
1.682773064701740287e-05,2.9988119942492987846,0.099230329849052598123,0.18714053216231643639,5.5168426273457855658,0.89251729057866169281,2.8645140268150641738,0.18642000816449227907,34,34,-0.010722263716161251068,0,0
1.6875891339763876011e-05,2.9986325816740806438,0.099241447716040126492,0.18727428698975082111,5.516883882589793231,0.89252838966100334073,2.8645139949573041882,0.18643950064708478265,35,35,-0.010562229901552200317,0,0
1.6931760032017032245e-05,2.9984245458006806295,0.099254344510269224,0.18742909074506139411,5.5169318426342357498,0.89254128790971809515,2.8645140294928257418,0.18646210817669425786,36,36,-0.010402196086943149567,0,0
1.6996570078588059524e-05,2.9981832074610990091,0.099269306005004637194,0.18760819041851012345,5.5169873807316598402,0.8925562278314581599,2.8645139985097882729,0.18648833792814986654,37,37,-0.010242162272334098816,0,0
1.7071752117137084254e-05,2.9979033645228683191,0.099286661604125789338,0.18781531205946097596,5.5170519110412188368,0.89257358168402134435,2.8645140343316666254,0.18651876068894632232,38,38,-0.010082128457725048065,0,0
1.7158965627503410624e-05,2.9975787653434999847,0.09930679561290617352,0.18805472430356942604,5.5171266733212629418,0.89259369036832747479,2.8645140049522987979,0.18655405618423376302,39,39,-0.0099220946431159973145,0,0
1.726013547406396101e-05,2.9972023900716480149,0.099330151575464584179,0.18833130778996803878,5.5172135071112826665,0.89261704027770638614,2.8645140430783135876,0.18659499501802545574,40,40,-0.0097620608285069465637,0,0
1.7377494331014168254e-05,2.9967658803519725552,0.099357246363102294517,0.18865063050586769466,5.5173141456580205855,0.8926441046940138957,2.8645140166287355044,0.18664248896452387272,41,41,-0.009602027013897895813,0,0
1.7513631816564107554e-05,2.9962597818991065779,0.099388677136603709172,0.18901902820457630594,5.5174310015146224018,0.89267552362119684251,2.8645140588934494552,0.18669757741575093712,42,42,-0.0094419931992888450623,0,0
1.7671551509979999009e-05,2.995672918000826801,0.099425139125524197858,0.1894436891476573015,5.5175664725749689055,0.89271194844992673989,2.8645140377813156363,0.18676148416709600908,43,43,-0.0092819593846797943115,0,0
1.7854736989748595593e-05,2.9949925797895633472,0.099467436221170768551,0.18993274129601042666,5.5177237434576218433,0.89275422590739339501,2.8645140874906771522,0.18683561008561350159,44,44,-0.0091219255700707435608,0,0
1.8067228431335992459e-05,2.9942038276484903569,0.099516503620133145436,0.1904953399346096532,5.5179061075441797612,0.89280324701571733836,2.8645140760823784021,0.18692159843252062479,45,45,-0.0089618917554616928101,0,0
1.8313711318596593539e-05,2.99328961203270838,0.09957342340057365182,0.1911417523306588595,5.5181177900608320286,0.89286013668011243727,2.8645141391985013968,0.18702133604445964066,46,46,-0.0088018579408526420593,0,0
1.8599619290601018226e-05,2.9922299829164247242,0.099639453605834510386,0.1918834356601772928,5.5183632914268434533,0.89292610831789598347,2.8645141454013485216,0.18713702991834674227,47,47,-0.0086418241262435913086,0,0
1.8931253228892636851e-05,2.9910021200944885145,0.099716050621734858561,0.19273310288918188427,5.5186482400681597937,0.89300266113221227204,2.8645142326755936857,0.18727121996185014385,48,48,-0.0084817903116345405579,0,0
1.931591924450695762e-05,2.9895794266332278433,0.09980490681579629042,0.19370477090151608235,5.5189787643133598749,0.89309144225691761143,2.8645142707906079416,0.18742687046714481824,49,49,-0.0083217564970254898071,0,0
1.9762088395129464333e-05,2.9879314438690030009,0.099907982155074209762,0.19481378378384117678,5.5193623858892992828,0.89319445446741596584,2.8645144016025718692,0.1876073984881731771,50,50,-0.0081617226824164390564,0,0
2.0279581626755557449e-05,2.9860228012449887558,0.10002755323824162603,0.19607680423748799492,5.5198074302724027262,0.89331392831129252663,2.8645144974581087105,0.18781678500856618941,51,51,-0.0080016888678073883057,0,0
2.087978371656330675e-05,2.9838129889217741564,0.10016625742270160448,0.19751176551641422274,5.5203239758377833368,0.89345254394990925029,2.864514706710540981,0.1880596243020869196,52,52,-0.0078416550531983375549,0,0
2.1575890793515210673e-05,2.9812551350769984637,0.10032715704771499876,0.1991377775678780937,5.5209233162957573882,0.8936133165727736527,2.8645149068761370792,0.1883412611210275589,53,53,-0.0076816217042505741119,0,0
2.2383196431825045373e-05,2.9782956105494751142,0.10051380043896382399,0.20097498210567751875,5.5216189860373630083,0.89379983731826462279,2.8645152573462482337,0.18866786805142127248,54,54,-0.0075215878896415233612,0,0
2.3319422274223375286e-05,2.9748726088544006352,0.10073030639115732043,0.20304435455050948156,5.5224262934841865658,0.89401617635644015092,2.8645156456140390411,0.18904661697042715596,55,55,-0.0073615540750324726105,0,0
2.4405099718049458627e-05,2.9709155669854481197,0.10098144786208497481,0.20536745386621982346,5.5233634509481293051,0.89426714949831165313,2.8645162499928100708,0.18948579345699329002,56,56,-0.0072015202604234218597,0,0
2.5664010339371506712e-05,2.9663435387657424158,0.10127276344077014436,0.20796612633943306614,5.5244512049928582442,0.89455824473258538365,2.8645169767257376847,0.18999501311086722244,57,57,-0.007041486445814371109,0,0
2.7123693469214406007e-05,2.9610644413700137889,0.10161067140668805786,0.21086217364677653507,5.5257141099874447221,0.89489592330306155787,2.8645180367386342546,0.19058538449001638515,58,58,-0.0068814526312053203583,0,0
2.8816030651588441641e-05,2.9549732486963882216,0.10200261702253902996,0.21407700070789856261,5.5271802917317556236,0.89528757723630980614,2.8645193708015854739,0.19126978355944782018,59,59,-0.0067214188165962696075,0,0
3.077791757796232878e-05,2.9479511264096949219,0.10245722696214523695,0.21763126188931067317,5.5288829190052588558,0.89574187643282565663,2.8645212461468125831,0.19206307918392764855,60,60,-0.0065613850019872188568,0,0
3.305203551243843669e-05,2.9398635433577471332,0.10298450383998010438,0.22154452652789116684,5.5308601506815211479,0.89626876677872180377,2.8645236660069630652,0.19298248161726802574,61,61,-0.0064013511873781681061,0,0
3.5687735079964324548e-05,2.930559456535297258,0.10359603373119824488,0.22583498377902533338,5.5331568803072759266,0.89687987815372993694,2.8645269945971731929,0.19404784664092253332,62,62,-0.0062413173727691173553,0,0
3.874204660504935809e-05,2.9198695650083723585,0.10430524218783941703,0.2305192043734518581,5.5358249354848378943,0.89758857480774856263,2.8645313461805081978,0.19528211561701960819,63,63,-0.0060812835581600666046,0,0
4.2280831700319774775e-05,2.9076058720397743862,0.10512767028063710328,0.23561197111623471967,5.5389251978508964314,0.89841044284314908186,2.8645372508261077726,0.19671171432865372508,64,64,-0.0059212497435510158539,0,0
4.6380091512701774128e-05,2.8935605090514235904,0.10608130871919509153,0.24112618360580917454,5.5425281459837929532,0.89936340578618034769,2.8645450162726509014,0.1983671003033087854,65,65,-0.0057612159289419651031,0,0
5.1127446434454657583e-05,2.8775062543837197637,0.10718695927380185451,0.24707283457231815627,5.5467164858670976457,0.90046831297400387051,2.8645554524404204244,0.20028326658598730181,66,66,-0.0056011825799942016602,0,0
5.6623801084547021483e-05,2.8591966454822945742,0.10846866342930402971,0.253461048484588225,5.5515861496042244738,0.90174913135025347444,2.8645691958283641121,0.20250040135830035815,67,67,-0.0054411487653851509094,0,0
6.2985205026398129072e-05,2.8383683698062176504,0.10995416283105491351,0.26029816649281473095,5.557249600780626686,0.90323365522496490421,2.8645875181230517903,0.20506448710713454098,68,68,-0.0052811149507761001587,0,0
7.0344914674630012259e-05,2.8147437343772283569,0.11167543082943390265,0.26758985791838935109,5.5638374014769711451,0.90495377451437097882,2.8646115951518869025,0.2080280461896726607,69,69,-0.005121081136167049408,0,0
7.88556524554993941e-05,2.7880362029890659592,0.11366922941198194519,0.27534023549370933992,5.5715023524493574314,0.90694631375234824322,2.8646434331377657045,0.21145077477954485334,70,70,-0.0049610473215579986572,0,0
8.8692045662799818889e-05,2.7579565921095778869,0.11597772316492760414,0.28355195120259102382,5.580421663556779599,0.90925334356660569846,2.864685045997739099,0.21540027119754476259,71,71,-0.0048010135069489479065,0,0
0.00010005320557854393323,2.7242232396397421113,0.11864908138174873331,0.29222624933434154793,5.5908019622851705677,0.91192311388302538244,2.8647395374737163465,0.21995252624053795998,72,72,-0.0046409796923398971558,0,0
0.0001131653765222971782,2.6865733020906419348,0.12173807475226020025,0.30136295477297453393,5.6028817963425989745,0.91501028802220174541,2.864810106431225023,0.22519235991587993606,73,73,-0.004480945877730846405,0,0
0.00012828453853647143286,2.6447787951176486843,0.12530654619860365218,0.31096037490872269204,5.6169370654783072894,0.91857681952578174034,2.864901311402000772,0.23121333877823371794,74,74,-0.0043209120631217956543,0,0
0.00014569878460640630757,2.5986637089972828285,0.12942369748259313633,0.32101509486154644613,5.6332826782121543374,0.92269177972323146442,2.8650177189526591093,0.23811729560354155666,75,75,-0.0041608782485127449036,0,0
0.00016573020570561326965,2.5481260682871829104,0.13416596276388784159,0.33152164562530334058,5.6522765924039966023,0.92743175437347213919,2.8651653205117422196,0.2460127574771976966,76,76,-0.0040008444339036941528,0,0
0.00018873590409022305702,2.4931598659798335227,0.13961626981911015588,0.34247202650134006552,5.6743171561503613631,0.93287948335578674275,2.8653494110753774393,0.25501228782936613548,77,77,-0.003840810852125287056,0,0
0.00021510761201461417089,2.433880979890559626,0.14586226515282285643,0.35385506544045181032,5.6998407095563727864,0.93912279829671874154,2.8655759993408866926,0.26522772367139568761,78,78,-0.0036807770375162363052,0,0
0.00024526923233978993035,2.3705497162139512746,0.15299307440263315572,0.3656556093405481378,5.7293064688468211543,0.94625047904330894522,2.8658481258354893129,0.276763236827738901,79,79,-0.0035207432229071855545,0,0
0.00027967145715962444608,2.3035941997501137024,0.16109397858629687095,0.37785355140329579537,5.7631773020793923834,0.95434797262423354258,2.8661670929689835319,0.28970501287757755016,80,80,-0.0033607094082981348038,0,0
0.00031878252214270741925,2.2336232646136502389,0.17023850276231927703,0.39042273345988842692,5.801879119574003596,0.96348809980347283055,2.8665263789120021265,0.30410796710408566357,81,81,-0.003200675593689084053,0,0
0.00036307420102554989862,2.1614326339413869604,0.18047772985962912129,0.40332980810171942254,5.8457545218331343762,0.97372206320432652671,2.8669138372078277754,0.31997918542471837089,82,82,-0.0030406417790800333023,0,0
0.00041300248565471239619,2.0879871809480281541,0.1918273458378315921,0.41653321508544727259,5.8949945232972771336,0.98506435268024761243,2.8673044202728159568,0.33726074504735314985,83,83,-0.0028806079644709825516,0,0
0.00046898316202028604138,2.0143855396877192732,0.20425450299173919522,0.42998250428205320173,5.9495827487241399467,0.99748258392502231473,2.8676686222755778388,0.35581464046334299045,84,84,-0.0027205743826925754547,0,0
0.00053136377756455113221,1.9417897205813297035,0.21766727519361878107,0.44361830548562791732,6.0092409987084201006,1.0108834402914448347,2.8679677965974201825,0.37541550229782250092,85,85,-0.002560540568083524704,0,0
0.00060039514541182536275,1.8713413929980202699,0.23191169072477910151,0.45737325459491534607,6.0734252322535819957,1.0251146500710923704,2.8681735708210713831,0.39575611663425808162,86,86,-0.0024005067534744739532,0,0
0.00067620709826877480313,1.8040581044637467034,0.24677818740698892475,0.4711740932891929079,6.1413497463123398745,1.0399651905223095127,2.8682619596937741768,0.41646798559840059184,87,87,-0.0022404729388654232025,0,0
0.00075879391649747156712,1.7407488981655900862,0.26202158666720787306,0.48494494006437199873,6.212071203728821267,1.0551929750093005378,2.8682360037393803687,0.43715890586622951908,88,88,-0.0020804391242563724518,0,0
0.00084801384781135660113,1.681945979598444163,0.27738719532604699802,0.49861140509632340123,6.2845988680118400893,1.0705408626862242816,2.8681070914185613496,0.45745410565550165272,89,89,-0.001920405426062643528,0,0
0.0009436044081511845219,1.6278838938630431077,0.29264507085245011764,0.51210493665863376922,6.3580023497496922502,1.0857825978306225867,2.8679091253693709263,0.47704485096514559483,90,90,-0.0017603716114535927773,0,0
