"epsilon","mach_number","pressure","rad_temp","rho","rhoE","rhou","temperature","GlobalNodeId","PedigreeNodeId","Points:0","Points:1","Points:2"
1.372018123847231729e-06,2.9999431216963796665,0.0096485331898889820784,0.10000001683373573036,0.99999999999633648606,0.08683679870620940322,0.38043133130989836843,0.10000000000298832348,1,1,-0.023103788495063781738,0,0
1.3720181240189610945e-06,2.9999431209120412944,0.0096485331947724090745,0.1000000168368648662,1.0000000000451554349,0.086836798712319918092,0.38043133131599171648,0.1000000000487195756,2,2,-0.023088386282324790955,0,0
1.3720181244092795941e-06,2.9999431200903829975,0.0096485331995740854921,0.10000001684397699653,1.0000000000632618402,0.086836798715894683576,0.38043133130989997825,0.1000000000966748126,3,3,-0.023072984069585800171,0,0
1.3720181250176732905e-06,2.9999431193098984316,0.0096485332044340781088,0.10000001685506273996,1.0000000001119078163,0.086836798721981078852,0.38043133131598944052,0.10000000014218048128,4,4,-0.023057581856846809387,0,0
1.3720181258436905033e-06,2.9999431184915485993,0.0096485332092157722467,0.10000001687011388085,1.0000000001298907648,0.0868367987255364987,0.38043133130990214319,0.10000000018994095741,5,5,-0.023042177781462669373,0,0
1.3720181268869233861e-06,2.9999431177141047122,0.0096485332140572137305,0.1000000168891229807,1.000000000178397741,0.086836798731603506707,0.3804313313159873311,0.10000000023526826876,6,6,-0.023026775568723678589,0,0
1.3720181281470265614e-06,2.999943116898329265,0.0096485332188233179085,0.100000016912083739,1.0000000001962803253,0.086836798735143702621,0.38043133130990236523,0.10000000028287719944,7,7,-0.023011373355984687805,0,0
1.3720181296236961561e-06,2.9999431161231688847,0.0096485332236508642573,0.10000001693899063238,1.0000000002446887137,0.086836798741196666307,0.38043133131598672048,0.10000000032807035422,8,8,-0.022995971143245697021,0,0
1.372018131316691401e-06,2.9999431153091622448,0.00964853322840618019,0.10000001696983927546,1.000000000262501354,0.08683679874472595428,0.38043133130990230972,0.10000000037557445209,9,9,-0.022980568930506706238,0,0
1.3720181332258130315e-06,2.9999431145354953365,0.0096485332332246504655,0.10000001700462601839,1.0000000003108524549,0.086836798750770147204,0.38043133131598849683,0.10000000042067927475,10,10,-0.022965166717767715454,0,0
1.3720181353509236168e-06,2.9999431137225416322,0.0096485332379734351643,0.10000001704334837704,1.0000000003286122485,0.086836798754292315872,0.38043133130990108848,0.10000000046812097809,11,11,-0.022949762642383575439,0,0
1.3720181376919272301e-06,2.9999431129496083592,0.0096485332427873517908,0.10000001708600458894,1.0000000003769320411,0.086836798760331831981,0.38043133131598694252,0.10000000051318173877,12,12,-0.022934360429644584656,0,0
1.3720181402487895668e-06,2.9999431121369561914,0.0096485332475342040076,0.10000001713259404346,1.0000000003946760696,0.08683679876385198837,0.38043133130989886803,0.10000000056060498466,13,13,-0.022918958216905593872,0,0
1.372018143021517403e-06,2.9999431113639820623,0.0096485332523483617606,0.10000001718311685162,1.0000000004430149581,0.086836798769892559191,0.38043133131599021768,0.1000000006056663282,14,14,-0.022903556004166603088,0,0
1.3720181460101787132e-06,2.9999431105508631568,0.00964853325709789586,0.10000001723757424854,1.0000000004607789705,0.086836798773415213581,0.38043133130990192114,0.1000000006531153729,15,15,-0.022888153791427612305,0,0
1.3720181492148823412e-06,2.9999431097770963284,0.0096485332619166246093,0.10000001729596823263,1.0000000005091413957,0.086836798779459531406,0.38043133131598955154,0.10000000069822173598,16,16,-0.022872751578688621521,0,0
1.3720181526357983286e-06,2.9999431089627890401,0.0096485332666731531137,0.10000001735830189864,1.000000000526939159,0.086836798782988666723,0.38043133130989714719,0.10000000074573990594,17,17,-0.022857347503304481506,0,0
1.3720181562731373751e-06,2.9999431081875207461,0.0096485332715008746696,0.10000001742457907683,1.0000000005753759691,0.086836798789042379809,0.38043133131598816377,0.10000000079093203376,18,18,-0.022841945290565490723,0,0
1.3720181601271707429e-06,2.9999431073712492513,0.009648533276269171538,0.1000000174948047077,1.0000000005932609959,0.086836798792583547169,0.38043133130989759128,0.10000000083856343258,19,19,-0.022826543077826499939,0,0
1.3720181641982103519e-06,2.9999431065937121055,0.0096485332811104378148,0.10000001756898449501,1.0000000006417884002,0.086836798798650513542,0.38043133131598727559,0.10000000088388689978,20,20,-0.022811140865087509155,0,0
1.3720181684866288966e-06,2.999943105774744545,0.0096485332858949352658,0.10000001764712521113,1.0000000006597933311,0.086836798802208264858,0.3804313313098992011,0.10000000093167421555,21,21,-0.022795738652348518372,0,0
1.3720181729928390938e-06,2.9999431049941938099,0.0096485332907542877695,0.10000001772923437782,1.000000000708453296,0.086836798808293549912,0.38043133131599093932,0.10000000097717186287,22,22,-0.022780336439609527588,0,0
1.3720181777173150702e-06,2.9999431041717614654,0.009648533295559471798,0.10000001781532064093,1.0000000007265925639,0.086836798811871146464,0.38043133130989903457,0.10000000102516017064,23,23,-0.022764932364225387573,0,0
1.3720181826605703395e-06,2.9999431033875021413,0.0096485333004411606012,0.10000001790539336799,1.0000000007754152875,0.086836798817979371501,0.38043133131599393693,0.10000000107087303469,24,24,-0.02274953015148639679,0,0
1.3720181878231794018e-06,2.9999431025608402912,0.0096485333052715553659,0.10000001799946299508,1.0000000007937122071,0.086836798821580768459,0.3804313313098952043,0.10000000111910685441,25,25,-0.022734127938747406006,0,0
1.3720181932057569913e-06,2.9999431017721356341,0.0096485333101800178912,0.10000001809754074933,1.0000000008427238907,0.086836798827716346616,0.38043133131599238261,0.10000000116507830328,26,26,-0.022718725726008415222,0,0
1.3720181988089786167e-06,2.9999431009404950998,0.0096485333150402689817,0.10000001819963892646,1.0000000008612299762,0.086836798831347136729,0.38043133130989298385,0.10000000121360065608,27,27,-0.022703323513269424438,0,0
1.3720182046335595974e-06,2.9999431001466181357,0.0096485333199797986697,0.10000001830577058548,1.0000000009104461629,0.08683679883751367623,0.38043133131598799723,0.1000000012598736554,28,28,-0.022687921300530433655,0,0
1.3720182106802764508e-06,2.999943099309285266,0.0096485333248743747336,0.10000001841594984009,1.0000000009292102643,0.086836798841179632658,0.3804313313098947047,0.10000000130872595261,29,29,-0.02267251722514629364,0,0
1.372018216949945505e-06,2.9999430985094019952,0.00964853332984998667,0.10000001853019158116,1.0000000009786800259,0.086836798847382032362,0.38043133131598994012,0.10000000135534756196,30,30,-0.022657115012407302856,0,0
1.3720182234434444978e-06,2.999943097665724423,0.0096485333347826798128,0.10000001864851180977,1.0000000009976954818,0.086836798851085805762,0.38043133130989359447,0.1000000014045697716,31,31,-0.022641712799668312073,0,0
1.3720182301616907658e-06,2.9999430968590981017,0.0096485333397988252979,0.10000001877092723479,1.0000000010474527912,0.086836798857328603707,0.38043133131598988461,0.10000000145158273457,32,32,-0.022626310586929321289,0,0
1.3720182371056632675e-06,2.9999430960082529296,0.0096485333447747061164,0.10000001889745568917,1.0000000010667777772,0.08683679886107620316,0.38043133130989736923,0.10000000150122161091,33,33,-0.022610908374190330505,0,0
1.3720182442763816188e-06,2.9999430951941685741,0.0096485333498356300186,0.10000001902811574139,1.0000000011168366232,0.086836798867363021448,0.38043133131599016217,0.10000000154866849067,34,34,-0.022595506161451339722,0,0
1.3720182516749262101e-06,2.9999430943354470358,0.0096485333548589364422,0.10000001916292711179,1.0000000011364895691,0.086836798871158388247,0.38043133130989859048,0.10000000159876609729,35,35,-0.022580102086067199707,0,0
1.3720182593024180896e-06,2.9999430935131310427,0.0096485333599693849649,0.10000001930191020072,1.0000000011868990235,0.086836798877494750237,0.38043133131599304875,0.10000000164669121949,36,36,-0.022564699873328208923,0,0
1.3720182671600401387e-06,2.9999430926457471003,0.00964853336504475044,0.10000001944508656038,1.0000000012069005795,0.086836798881341589751,0.38043133130989781332,0.1000000016972935335,37,37,-0.02254929766058921814,0,0
1.3720182752490163202e-06,2.9999430918145004732,0.0096485333702088695723,0.10000001959247850625,1.0000000012576759634,0.086836798887731075913,0.38043133131598988461,0.10000000174573830947,38,38,-0.022533895447850227356,0,0
1.3720182835706317946e-06,2.9999430909376965104,0.0096485333753410056079,0.10000001974410945016,1.0000000012780845271,0.086836798891635327835,0.38043133130989914559,0.10000000179688829649,39,39,-0.022518493235111236572,0,0
1.3720182921262134393e-06,2.9999430900967176683,0.0096485333805635970644,0.1000000199000035811,1.0000000013292551504,0.086836798898082434572,0.3804313313159873311,0.10000000184589957763,40,40,-0.022503091022372245789,0,0
1.3720183009171503881e-06,2.9999430892097618262,0.0096485333857568959803,0.10000002006018618439,1.0000000013500909279,0.086836798902048262239,0.38043133130989853496,0.10000000189764075842,41,41,-0.022487686946988105774,0,0
1.3720183099448728562e-06,2.9999430883582851592,0.0096485333910426313714,0.1000000202246833364,1.0000000014016980909,0.086836798908558152088,0.3804313313159858323,0.10000000194726282876,42,42,-0.02247228473424911499,0,0
1.3720183192108743744e-06,2.9999430874604162689,0.0096485333963016554903,0.10000002039352225147,1.0000000014229910583,0.086836798912590010269,0.38043133130989842394,0.10000000199963945957,43,43,-0.022456882521510124207,0,0
1.3720183287166895547e-06,2.9999430865976801641,0.0096485334016551873443,0.10000002056673089335,1.0000000014750727306,0.086836798919167790256,0.38043133131598710905,0.10000000204991675579,44,44,-0.022441480308771133423,0,0
1.3720183384639167484e-06,2.999943085688113964,0.0096485334069846377669,0.10000002074433837762,1.0000000014968530859,0.086836798923270092088,0.38043133130989992274,0.10000000210297457781,45,45,-0.022426078096032142639,0,0
1.3720183484541962345e-06,2.9999430848133536998,0.0096485334124105474884,0.10000002092637461093,1.0000000015494376893,0.086836798929920161472,0.38043133131598888541,0.10000000215395170311,46,46,-0.022410675883293151855,0,0
1.3720183586892322436e-06,2.9999430838913205832,0.0096485334178150767431,0.10000002111287062401,1.0000000015717391832,0.086836798934097653158,0.38043133130990242075,0.10000000220773555548,47,47,-0.022395271807909011841,0,0
1.3720183691707711456e-06,2.9999430830037669971,0.0096485334233179422675,0.1000000213038582525,1.000000001624848478,0.086836798940824092008,0.38043133131598849683,0.10000000225945782084,48,48,-0.022379869595170021057,0,0
1.3720183799006245324e-06,2.9999430820684342969,0.0096485334288025186023,0.1000000214993704839,1.0000000016477055276,0.086836798945081380974,0.38043133130990186563,0.10000000231401573458,49,49,-0.022364467382431030273,0,0
1.3720183908806463474e-06,2.9999430811673137853,0.0096485334343870514384,0.10000002169944113839,1.0000000017013730425,0.086836798951889268561,0.38043133131598627639,0.10000000236652857588,50,50,-0.02234906516969203949,0,0
1.3720184021127559671e-06,2.9999430802178994604,0.0096485334399564106483,0.10000002190410516023,1.0000000017248218409,0.086836798956231239788,0.38043133130990047786,0.10000000242190605626,51,51,-0.022333662956953048706,0,0
1.3720184135989157551e-06,2.9999430793024068898,0.0096485334456274489401,0.10000002211339831248,1.0000000017790766638,0.086836798963125280681,0.38043133131598194652,0.10000000247525674124,52,52,-0.022318260744214057922,0,0
1.3720184253411545672e-06,2.9999430783381351162,0.0096485334512863112078,0.10000002232735756558,1.0000000018031527382,0.086836798967556999562,0.38043133130989847945,0.10000000253149909923,53,53,-0.022302856668829917908,0,0
1.3720184373415450929e-06,2.9999430774074324901,0.0096485334570491094325,0.10000002254602068097,1.0000000018580685879,0.086836798974544091023,0.38043133131598849683,0.10000000258573471523,54,54,-0.022287454456090927124,0,0
1.3720184496022263022e-06,2.9999430764274901406,0.0096485334628022192266,0.10000002276942664137,1.0000000018827817083,0.08683679897906905476,0.3804313313098997007,0.10000000264289019003,55,55,-0.02227205224335193634,0,0
1.3720184621253822696e-06,2.9999430754807598909,0.0096485334686615600169,0.10000002299761524827,1.0000000019383712413,0.086836798986152832769,0.3804313313159913279,0.10000000269805901787,56,56,-0.022256650030612945557,0,0
1.3720184749132637733e-06,2.9999430744843409435,0.0096485334745137676243,0.10000002323062749665,1.0000000019637518278,0.086836798990775801443,0.38043133130989642554,0.10000000275617482171,57,57,-0.022241247817873954773,0,0
1.3720184879681681784e-06,2.9999430735207814891,0.0096485334804745463699,0.10000002346850525581,1.0000000020200510154,0.086836798997961664459,0.38043133131599143892,0.10000000281232401811,58,58,-0.022225845605134963989,0,0
1.372018501292459554e-06,2.9999430725069995418,0.0096485334864313005571,0.10000002371129160239,1.000000002046159242,0.086836799002688938587,0.38043133130989686963,0.10000000287145059674,59,59,-0.022210441529750823975,0,0
1.3720185148885489793e-06,2.9999430715257928703,0.0096485334924983727489,0.10000002395903047347,1.0000000021031880681,0.086836799009981133213,0.38043133131599105035,0.10000000292862848417,60,60,-0.022195039317011833191,0,0
1.372018528758916355e-06,2.9999430704938281345,0.0096485334985646677847,0.10000002421176705514,1.0000000021300627928,0.086836799014818111253,0.38043133130989875701,0.10000000298881374372,61,61,-0.022179637104272842407,0,0
1.3720185429060885921e-06,2.9999430694940776299,0.0096485335047433746364,0.10000002446954739388,1.0000000021878581169,0.086836799022221453082,0.38043133131599071728,0.10000000304707198917,62,62,-0.022164234891533851624,0,0
1.3720185573326622702e-06,2.9999430684430836713,0.0096485335109242360146,0.1000000247324187852,1.0000000022155224322,0.08683679902717261756,0.38043133130989703616,0.10000000310836565376,63,63,-0.02214883267879486084,0,0
1.3720185720412820378e-06,2.9999430674239588868,0.0096485335172196446535,0.10000002500042944054,1.0000000022741235561,0.086836799034692671584,0.38043133131598894092,0.10000000316775287112,64,64,-0.022133430466055870056,0,0
1.3720185870346632709e-06,2.9999430663530239904,0.0096485335235206408366,0.10000002527362880644,1.0000000023026287543,0.086836799039764087094,0.38043133130989764679,0.1000000032302075792,65,65,-0.022118026390671730042,0,0
1.3720186023155700497e-06,2.9999430653136580638,0.0096485335299379328816,0.10000002555206728705,1.0000000023620636558,0.086836799047405738294,0.38043133131598722008,0.10000000329077461669,66,66,-0.022102624177932739258,0,0
1.3720186178868382405e-06,2.9999430642219095944,0.0096485335363643391637,0.10000002583579653548,1.0000000023914490388,0.086836799052602844928,0.3804313313098992011,0.10000000335444109156,67,67,-0.022087221965193748474,0,0
1.3720186337513534728e-06,2.9999430631614272258,0.0096485335429088263381,0.10000002612486913467,1.0000000024517576858,0.086836799060371616665,0.38043133131598760865,0.10000000341623906108,68,68,-0.02207181975245475769,0,0
1.3720186499120746444e-06,2.999943062047947695,0.0096485335494659978106,0.10000002641933898595,1.0000000024820390188,0.086836799065698369593,0.38043133130989525981,0.10000000348117121796,69,69,-0.022056417539715766907,0,0
1.3720186663720106282e-06,2.99994306096538077,0.0096485335561435174589,0.10000002671926093434,1.0000000025432675965,0.086836799073600146048,0.38043133131598372287,0.10000000354425597759,70,70,-0.022041015326976776123,0,0
1.3720186831342446241e-06,2.9999430598293304051,0.009648533562836765845,0.10000002702469115712,1.0000000025745041654,0.086836799079063858864,0.38043133130989653656,0.10000000361050295772,71,71,-0.022025611251592636108,0,0
1.3720187002019121362e-06,2.9999430587237370105,0.0096485335696530165339,0.10000002733568677526,1.0000000026367008576,0.086836799087104551975,0.38043133131598727559,0.10000000367492874187,72,72,-0.022010209038853645325,0,0
1.3720187175782227842e-06,2.9999430575641663488,0.0096485335764879744808,0.10000002765230628365,1.0000000026689168653,0.086836799092710123538,0.38043133130990053337,0.10000000374254648661,73,73,-0.021994806826114654541,0,0
1.372018735266440186e-06,2.9999430564346449835,0.0096485335834482505862,0.10000002797460913473,1.000000002732096549,0.08683679910089384113,0.38043133131598638741,0.100000003808366697,74,74,-0.021979404613375663757,0,0
1.3720187532699033455e-06,2.9999430552506156644,0.0096485335904306739063,0.10000002830265619647,1.0000000027653457302,0.086836799106647863389,0.38043133130990491875,0.10000000387740949626,75,75,-0.021964002400636672974,0,0
1.3720187715920061119e-06,2.9999430540961573577,0.0096485335975410053272,0.10000002863650928053,1.0000000028295532584,0.0868367991149802676,0.38043133131598544372,0.10000000394468212817,76,76,-0.02194860018789768219,0,0
1.3720187902362194146e-06,2.9999430528866808388,0.0096485336046767782026,0.10000002897623164189,1.0000000028638653671,0.086836799120887986358,0.38043133130990558488,0.10000000401520800497,77,77,-0.021933196112513542175,0,0
1.3720188092060700869e-06,2.9999430517063561119,0.0096485336119428184026,0.10000002932188754856,1.0000000029291391535,0.086836799129375127904,0.38043133131598172447,0.10000000408398780627,78,78,-0.021917793899774551392,0,0
1.3720188285051628894e-06,2.9999430504704576173,0.0096485336192378250153,0.10000002967354268413,1.0000000029645592647,0.086836799135442538367,0.38043133130990453017,0.10000000415605321546,79,79,-0.021902391687035560608,0,0
1.3720188481371608159e-06,2.9999430492632757073,0.0096485336266656420573,0.10000003003126378687,1.0000000030309528221,0.086836799144091286751,0.38043133131598055874,0.10000000422639776509,80,80,-0.021886989474296569824,0,0
1.3720188681058056346e-06,2.9999430479999249499,0.0096485336341261464937,0.10000003039511905223,1.0000000030675342266,0.086836799150325036378,0.38043133130990897106,0.10000000430006231178,81,81,-0.021871587261557579041,0,0
1.3720188884148979822e-06,2.9999430467648462439,0.0096485336417219038502,0.10000003076517770262,1.0000000031350766427,0.086836799159140679039,0.38043133131598011465,0.10000000437203254711,82,82,-0.021856185048818588257,0,0
1.3720189090683198108e-06,2.9999430454730786622,0.0096485336493535873298,0.10000003114151050088,1.0000000031728284444,0.086836799165545500157,0.38043133130990586244,0.10000000444735418492,83,83,-0.021840780973434448242,0,0
1.372018930070013e-06,2.999943044209071541,0.0096485336571237780706,0.10000003152418925068,1.0000000032416072049,0.086836799174536766222,0.38043133131598599883,0.10000000452100865633,84,84,-0.021825378760695457458,0,0
1.3720189514240015915e-06,2.9999430428877227328,0.0096485336649335586706,0.10000003191328729613,1.0000000032805871353,0.086836799181118667912,0.38043133130990863799,0.10000000459805333253,85,85,-0.021809976547956466675,0,0
1.3720189731343720957e-06,2.9999430415937955452,0.0096485336728839212611,0.10000003230887909156,1.0000000033505962449,0.086836799190289415407,0.38043133131598422247,0.10000000467345213084,86,86,-0.021794574335217475891,0,0
1.3720189952052942442e-06,2.9999430402418556518,0.0096485336808780179652,0.10000003271104060398,1.0000000033908544861,0.086836799197055711264,0.38043133130990797186,0.1000000047522792701,87,87,-0.021779172122478485107,0,0
1.3720190176410008723e-06,2.9999430389168724176,0.0096485336890154444617,0.10000003311984896615,1.0000000034621574496,0.086836799206413184393,0.38043133131598289021,0.10000000482948746827,88,88,-0.021763769909739494324,0,0
1.3720190404458114245e-06,2.9999430375332454268,0.0096485336972004422801,0.10000003353538289286,1.0000000035037344137,0.086836799213370285955,0.38043133130990630653,0.10000000491016128312,89,89,-0.021748365834355354309,0,0
