"epsilon","mach_number","pressure","rad_temp","rho","rhoE","rhou","temperature","GlobalNodeId","PedigreeNodeId","Points:0","Points:1","Points:2"
1.6530984900221115051e-05,2.9999333066600590847,0.099160876212050108602,0.18630999511719187334,5.5165846464143415417,0.89244788736208979785,2.8645140262596853198,0.18629824018232349347,1,1,-0.016003377735614776611,0,0
1.653101845210708213e-05,2.9999312248320841867,0.099161003648871731686,0.18631008965249920561,5.5165850651392176474,0.89244800211474117901,2.8645139878333285566,0.18629846546332584634,2,2,-0.015880275517702102661,0,0
1.6531114704025579525e-05,2.9999291986773459762,0.099161130788133877711,0.18631036084971042133,5.5165855907585132911,0.89244814191660115643,2.8645140262599286807,0.18629868657536075016,3,3,-0.015757173299789428711,0,0
1.6531273940362389846e-05,2.9999270991064883596,0.099161259291078746037,0.18631080950778244887,5.516586013592400306,0.89244825771426494754,2.8645139878330936334,0.18629891372050233489,4,4,-0.01563406921923160553,0,0
1.6531497382484453782e-05,2.9999249938168839336,0.099161391301170728751,0.18631143906409775024,5.5165865574351435896,0.89244840236592304361,2.8645140262602457604,0.18629914336809327846,5,5,-0.01551096700131893158,0,0
1.6531787201918489812e-05,2.9999227528693910294,0.099161528531764034367,0.18631225563139941492,5.516587012799555545,0.8924485268693015394,2.8645139878329270999,0.1862993858116192003,6,6,-0.015387863852083683014,0,0
1.6532146523028150254e-05,2.9999204437997808448,0.099161673135933769974,0.18631326800501593621,5.5165876035208833983,0.89244868409256439268,2.8645140262606481052,0.1862996375370727653,7,7,-0.015264760702848434448,0,0
1.6532579464708089845e-05,2.9999179339508361686,0.099161826994928717327,0.18631448777988002252,5.5165881207340099479,0.89244882520030377471,2.8645139878327987581,0.1862999091323751244,8,8,-0.015141657553613185883,0,0
1.6533091171398161807e-05,2.9999152888406550588,0.099161992386459160698,0.18631592943729810563,5.5165887887422595526,0.89244900318572550901,2.8645140262611885618,0.186300197301844217,9,9,-0.015018555335700511932,0,0
1.653368788399863911e-05,2.9999123711804767112,0.099162171478222510546,0.18631761054394838095,5.5165893997420001327,0.89244916949872266088,2.8645139878327476879,0.18630051313573028904,10,10,-0.014895452186465263367,0,0
1.6534377000776501399e-05,2.9999092425138313978,0.099162366793821163369,0.18631955192244784025,5.5165901789551279322,0.89244937737887242157,2.8645140262619261939,0.18630085376926833196,11,11,-0.014772349037230014801,0,0
1.6535167179922086997e-05,2.9999057588493061033,0.099162580915700695994,0.18632177793897594653,5.5165909201152629748,0.89244957868949581492,2.8645139878328373939,0.18630123102001200364,12,12,-0.014649245887994766235,0,0
1.653606843364493608e-05,2.9999019755836426882,0.099162816747939863671,0.18632431676670649368,5.5165918498631079103,0.89244982705119790811,2.8645140262629906758,0.18630164269006074806,13,13,-0.014526143670082092285,0,0
1.6537092266587976528e-05,2.9998977396767361192,0.099163077433047447373,0.18632720077364722799,5.5165927640080791861,0.89245007488579819466,2.8645139878331025152,0.18630210157909246615,14,14,-0.014403040520846843719,0,0
1.6538251808285956844e-05,2.9998930978688380655,0.099163366411073483597,0.18633046689314639033,5.5165938911882843598,0.89245037635057211656,2.8645140262645112372,0.18630260642865320575,15,15,-0.014279937371611595154,0,0
1.6539561993635417531e-05,2.9998878853200587891,0.099163687554984281114,0.18633415712894779714,5.5165950299204471463,0.89245068459587517662,2.864513987833723796,0.18630317131934112651,16,16,-0.014156834222376346588,0,0
1.6541039741004754141e-05,2.9998821371285999682,0.099164045025780911402,0.18633831905272460472,5.5165964115280807789,0.89245105450079242893,2.864514026266715252,0.18630379625642426444,17,17,-0.014033732004463672638,0,0
1.6542704183237933732e-05,2.9998756733498024296,0.099164443631597432027,0.18634300644949863823,5.5165978379943245713,0.89245144014848887259,2.8645139878348921947,0.18630449696037426621,18,18,-0.013910628855228424072,0,0
1.6544576901179716591e-05,2.9998685138165175346,0.099164888478900162228,0.18634827996878344791,5.5165995441634851915,0.89245189736459795693,2.8645140262699935185,0.18630527509374433803,19,19,-0.013787525705993175507,0,0
1.6546682216393983166e-05,2.9998604594442999094,0.099165385560939317555,0.1863542079407018992,5.5166013364115107365,0.89245238141445215607,2.8645139878370051711,0.18630614845516640932,20,20,-0.013664422556757926941,0,0
1.6549047492835256842e-05,2.9998515103457332742,0.09916594120572788662,0.18636086721514402709,5.5166034541310429162,0.89245294934659058494,2.8645140262748802762,0.18630712084841932752,21,21,-0.013541320338845252991,0,0
1.6551703505734649221e-05,2.9998414433175937255,0.099166562900107349532,0.18636834418746028863,5.5166057092344615853,0.89245355791627511977,2.8645139878406618017,0.18630821269118963412,22,22,-0.013418217189610004425,0,0
1.6554684827768885891e-05,2.9998302332298192319,0.099167258535935248753,0.18637673586939149106,5.5166083469366462566,0.89245426573757569155,2.8645140262822579302,0.18630943052848339403,23,23,-0.013295114040374755859,0,0
1.6558030292582986406e-05,2.9998176265754605829,0.099168037476917048068,0.18638615117346765682,5.5166111861073821032,0.89245503143804472135,2.8645139878468315331,0.18631079806907296925,24,24,-0.013172010891139507294,0,0
1.6561783486272729364e-05,2.9998035661006565711,0.099168909605385546779,0.18639671227071355486,5.5166144793717881711,0.89245591562433945754,2.8645140262935040454,0.18631232534699015968,25,25,-0.013048908673226833344,0,0
1.6565993328985720848e-05,2.9997877602800580021,0.099169886640113849574,0.18640855619522053721,5.5166180543298679595,0.89245687927334815814,2.8645139878570580194,0.1863140402005579177,26,26,-0.012925805523991584778,0,0
1.6570714698078624317e-05,2.9997701111351378067,0.099170980987338411272,0.18642183655716057511,5.5166221730025952752,0.89245798551828170453,2.8645140263106716461,0.18631595708779516429,27,27,-0.012802702374756336212,0,0
1.657600915742901484e-05,2.9997502794742407772,0.099172207319161057026,0.18643672554381301998,5.5166266739387221918,0.89245919828218889247,2.864513987873787304,0.18631810902548678888,28,28,-0.012679599225521087646,0,0
1.6581945745545475487e-05,2.9997281158234869736,0.099173581233999330564,0.18645341607261764483,5.5166318310426047944,0.89246058389376947684,2.8645140263371340339,0.18632051606691230061,29,29,-0.012556497007608413696,0,0
1.6588601889956262349e-05,2.9997032212414795893,0.099175121106919339464,0.18647212428260551143,5.5166374965915032647,0.89246210997004427057,2.864513987901001979,0.18632321772157670048,30,30,-0.012433393858373165131,0,0
1.6596064402201089489e-05,2.9996753812567287234,0.099176846566722945409,0.18649309223143623049,5.5166439594935567925,0.89246384687424129556,2.8645140263781279089,0.18632624110703521758,31,31,-0.012310290709137916565,0,0
1.6604430624343240538e-05,2.9996441220301632846,0.09917878063174630221,0.18651659099200026959,5.5166510892416473766,0.89246576685535550233,2.8645139879448691111,0.18632963387395398702,32,32,-0.012187187559902667999,0,0
1.6613809683607824643e-05,2.9996091471562911224,0.099180948013267461461,0.18654292401984312599,5.5166591936650863914,0.89246794536432316747,2.8645140264417716658,0.1863334320478986228,33,33,-0.012064085341989994049,0,0
1.6624323930196745002e-05,2.9995698889004906995,0.099183377553061488618,0.18657243099379797191,5.5166681638494381446,0.8924703604593849926,2.8645139880152807876,0.18633769348948464595,34,34,-0.011940982192754745483,0,0
1.6636110517924044107e-05,2.9995259476735567361,0.0991861003660148427,0.18660549200587525642,5.5166783314645142511,0.89247309400164120952,2.8645140265409043678,0.18634246544731947193,35,35,-0.011817879043519496918,0,0
1.6649323207728727853e-05,2.9994766380140167605,0.09918915259915751792,0.18664253231192179383,5.5166896146855144423,0.89247613133678349584,2.8645139881278902649,0.18634781858927243481,36,36,-0.011694776825606822968,0,0
1.6664134357699724863e-05,2.9994214304869935006,0.099192573430346792085,0.18668402752445409365,5.516702375202471309,0.892479562397107129,2.8645140266958075692,0.18635381429439770717,37,37,-0.011571673676371574402,0,0
1.6680737185770295908e-05,2.9993594920098103351,0.09919640817286561052,0.18673050946867889022,5.5167165651847360763,0.8924833816721815527,2.8645139883075407816,0.18636053929936680085,38,38,-0.011448570527136325836,0,0
1.6699348273905941149e-05,2.999290129853334097,0.099200706152033399365,0.18678257258857175471,5.5167325841070509185,0.89248768925209942537,2.8645140269383282394,0.1863680727654745406,39,39,-0.011325467377901077271,0,0
1.6720210407413889706e-05,2.9992123258198537528,0.09920552418492810387,0.18684088113325342251,5.5167504268075084894,0.89249249110211581471,2.8645139885934240986,0.18637652159430512233,40,40,-0.01120236515998840332,0,0
1.6743595724892449403e-05,2.9991251819344726393,0.099210924363060032372,0.1869061770152488644,5.5167705403022671007,0.89249790009151019898,2.8645140273185401014,0.18638598731634534178,41,41,-0.011079262010753154755,0,0
1.6769809281635264585e-05,2.9990274478730150065,0.099216977943676329388,0.18697928857866338848,5.5167929729984139797,0.89250393659040250238,2.8645139890475657118,0.18639660214256242865,42,42,-0.010956158861517906189,0,0
1.6799193010591270372e-05,2.9989179678193456091,0.099223763074486756586,0.18706114017133851357,5.5168182317147254068,0.89251072954059562647,2.8645140279155625329,0.18640849573418910579,43,43,-0.010833055712282657623,0,0
1.683213019503006428e-05,2.9987952004040003828,0.099231369141646291743,0.18715276276346451412,5.5168464321247041582,0.89251831739673814781,2.8645139897680871321,0.18642183207265908274,44,44,-0.010709953494369983673,0,0
1.6869050447962543162e-05,2.9986576660646990788,0.099239894482457388647,0.18725530550455762868,5.5168781562601845181,0.89252684931077463926,2.8645140288539914231,0.18643677618653570205,45,45,-0.010586850345134735107,0,0
1.6910435326487577941e-05,2.9985034585870509183,0.099249451245985415015,0.1873700484593640303,5.5169136042761053318,0.89253638644445143502,2.8645139909098902287,0.18645353194208061365,46,46,-0.010463747195899486542,0,0
1.6956824590025718096e-05,2.9983306921372805398,0.099260163152039157519,0.18749841640415326749,5.5169534527872876595,0.89254710335812148525,2.8645140303301355189,0.18647230882370874339,47,47,-0.010340644046664237976,0,0
1.7008823247988348371e-05,2.9981370032884653298,0.099272170934042752721,0.18764199391122732274,5.5169980080683647117,0.89255908972772735055,2.8645139927177547534,0.18649336077232764319,48,48,-0.010217541828751564026,0,0
1.7067109423457576959e-05,2.997919996688872768,0.099285630218161988192,0.18780254157908773949,5.5170480656655929153,0.89257255205255925379,2.8645140326536333575,0.1865169531413367332,49,49,-0.01009443867951631546,0,0
1.7132443199991542878e-05,2.9976767362044123288,0.099300717635241300685,0.18798201360628055689,5.5171040651747391692,0.89258761581778822691,2.8645139955781808716,0.18654340274098696328,50,50,-0.0099713355302810668945,0,0
1.7205676500365765086e-05,2.9974041879398281019,0.099317628913371036603,0.18818257652160388926,5.517166951683956988,0.89260452766565201443,2.8645140363126531113,0.18657304512383188211,51,51,-0.0098482323810458183289,0,0
1.7287764191150737254e-05,2.9970986988220116309,0.099336585767330815022,0.1884066292136906684,5.5172373323093104602,0.89262345805437659507,2.8645140001012063813,0.18660627603239701711,52,52,-0.0097251301631331443787,0,0
1.7379776489926235369e-05,2.99675643539840042,0.099357834322282165274,0.18865682399827019,5.5173163401697840058,0.89264470407495699611,2.8645140420768093747,0.18664351920779953531,53,53,-0.009602027013897895813,0,0
1.7482912902307021853e-05,2.9963728478226387963,0.099381652916243443108,0.18893608877641043797,5.517404792905756139,0.89266849266944681141,2.8645140072495909322,0.18668526948670891019,54,54,-0.0094789238646626472473,0,0
1.7598517800717942083e-05,2.995943102513197065,0.099408351003102773946,0.18924764990846509871,5.5175040600697533577,0.89269518432271133257,2.8645140511594755495,0.18673206137634945634,55,55,-0.0093558207154273986816,0,0
1.7728097913413190387e-05,2.9954615290762167668,0.099438278037750682525,0.18959505572348345215,5.5176152239129541144,0.89272507691833657972,2.8645140185420503443,0.18678451410764515539,56,56,-0.0092327184975147247314,0,0
1.7873341879663091718e-05,2.9949220445206750085,0.099471823044720186768,0.18998220012842392812,5.5177399513049074642,0.89275861059402905617,2.8645140654729308594,0.18684330128117052072,57,57,-0.0091096153482794761658,0,0
1.8036142190862699603e-05,2.994317580166564241,0.099509424798336562623,0.19041334605460411011,5.5178796571493009537,0.89279617233227526185,2.8645140363733756494,0.18690919825915439101,58,58,-0.0089865121990442276001,0,0
1.8218619728376564518e-05,2.9936404946899450863,0.099551572290956805156,0.19089314799808285161,5.5180363822350768643,0.89283830234240879609,2.8645140880305661746,0.1869830532629416231,59,59,-0.0088634090498089790344,0,0
1.8423151281353546306e-05,2.9928819775296524597,0.099598816474010504196,0.19142667316622677398,5.5182119597401309008,0.89288549950650963893,2.8645140645183237993,0.18706583758055775335,60,60,-0.0087403068318963050842,0,0
1.8652400323582545141e-05,2.9920324476026607385,0.099651771919306700309,0.19201942024719415025,5.5184089007836716334,0.89293842974467219076,2.8645141235787909828,0.1871586185898318766,61,61,-0.0086172036826610565186,0,0
1.8909351511031566941e-05,2.9910809291672779686,0.099711130453819254993,0.19267733507300499607,5.5186295646008813875,0.89299773246521008119,2.8645141089234944509,0.18726261337456157063,62,62,-0.0084941005334258079529,0,0
1.9197349263653913317e-05,2.9900154326567345286,0.099777664381591912868,0.19340682196154193595,5.5188770540297324985,0.89306423148678060198,2.8645141795900634918,0.18737916426205966647,63,63,-0.0083709973841905593872,0,0
1.95201409895942902e-05,2.9888222984398638005,0.099852242428780643713,0.19421474980765923712,5.5191543901015780449,0.89313874267704329579,2.864514178950721579,0.18750979658403335582,64,64,-0.008247895166277885437,0,0
1.9881925419461593307e-05,2.9874865559574401708,0.099935834985724655843,0.1951084515617535764,5.5194654202831463508,0.89322228815208559727,2.8645142678209190024,0.18765619745667880269,65,65,-0.0081247920170426368713,0,0
2.0287406726934230735e-05,2.9859912304477194134,0.10002953288285854061,0.19609571610042869638,5.5198139984351817233,0.89331590532974514129,2.8645142893269541773,0.18782027859701763695,66,66,-0.0080016888678073883057,0,0
2.0741855030671587138e-05,2.9843176765853387522,0.10013455522656254659,0.19718477117465949,5.5202049093786316192,0.89342086531084918821,2.8645144067528525156,0.18800415924140953527,67,67,-0.0078785866498947143555,0,0
2.1251174097404156987e-05,2.9824448431853274322,0.10025227165556423181,0.19838425662898356849,5.5206430554389394061,0.89353848362301790953,2.8645144631958920911,0.18821023513907136904,68,68,-0.0077554835006594657898,0,0
2.1821976995479536811e-05,2.9803495780821935845,0.10038421348470619177,0.19970318693810765187,5.5211344018605048589,0.89367034391868094279,2.8645146254080673387,0.18844116670361418797,69,69,-0.0076323803514242172241,0,0
2.2461670691597295559e-05,2.9780058463745664454,0.10053210025041335596,0.20115090280393743694,5.5216851714939503282,0.8938181107419398419,2.8645147368836223478,0.18869995555677362975,70,70,-0.0075092776678502559662,0,0
2.3178550524732111733e-05,2.97538500472022438,0.10069785504834585788,0.20273701160906093532,5.522302816801519576,0.8939837599659912204,2.8645149693001363822,0.18898993923781623461,71,71,-0.0073861745186150074005,0,0
2.3981905755173693113e-05,2.9724549702720541866,0.10088363637059587219,0.20447131740257371013,5.5229952246810709582,0.89416939397793471223,2.8645151673187880803,0.18931487696328205828,72,72,-0.0072630718350410461426,0,0
2.4882137339990915249e-05,2.9691804654687872222,0.10109185873094321539,0.20636374130317436393,5.5237717223630431462,0.89437748063604349813,2.864515509683145833,0.18967895247657834412,73,73,-0.0071399686858057975769,0,0
2.589088937154518792e-05,2.9655221380891743088,0.10132523102996877917,0.20842423417336106151,5.5246422949148090709,0.89461067132948002278,2.864515843544115814,0.19008687101902518868,74,74,-0.007016866002231836319,0,0
2.7021195579513421296e-05,2.9614367828012562178,0.10158678380842017797,0.21066268364193987961,5.5256186343261255445,0.89487205067879205256,2.8645163578686374528,0.1905438721729980911,75,75,-0.0068937628529965877533,0,0
2.8287642602298076154e-05,2.9568764186353559964,0.10187991565116893966,0.21308881842249888239,5.5267133729181772139,0.89516495797742601237,2.8645169044917579981,0.19105584038937870051,76,76,-0.0067706601694226264954,0,0
2.9706551702695016608e-05,2.9517885021324654637,0.10220842869348957527,0.21571211289807204481,5.5279411874607076172,0.89549325040145499877,2.864517687270181856,0.19162932993045858621,77,77,-0.0066475570201873779297,0,0
3.1296180922585452582e-05,2.9461149782101339056,0.10257658488597912183,0.21854169549054663912,5.5293180525282705773,0.89586112835387643472,2.8645185662650929359,0.1922716916301712986,78,78,-0.0065244543366134166718,0,0
3.3076949633626874677e-05,2.9397925131370330476,0.1029891516892713077,0.22158626395468569714,5.5308624147218941047,0.89627341560392892461,2.8645197671149595919,0.19299111221361475721,79,79,-0.0064013511873781681061,0,0
3.5071687761632459131e-05,2.9327515496889118296,0.10345147035015536674,0.2248540108137123128,5.5325944709251464459,0.89673538898592330959,2.8645211636888059381,0.19379676019858044222,80,80,-0.0062782485038042068481,0,0
3.7305911894027400536e-05,2.9249166079827846332,0.10396951402531703912,0.2283525613040634783,5.5345374317435105382,0.89725307965636746932,2.8645230135441726027,0.19469884183359506546,81,81,-0.0061551453545689582825,0,0
3.980813077322275167e-05,2.9162053974609514206,0.10454997051512512907,0.23208892582956558437,5.5367168304804312839,0.89783310735724752849,2.8645252129510727634,0.19570876902667339037,82,82,-0.0060320426709949970245,0,0
4.2610182535696329445e-05,2.9065292613048585579,0.10520031528261837572,0.23606946773128162365,5.5391618998244194216,0.89848300783659706958,2.8645280661769558783,0.19683923367465164245,83,83,-0.0059089395217597484589,0,0
4.5747606269365447603e-05,2.8957924271028168128,0.10592891124761991128,0.24029988658146558822,5.5419049178291146518,0.89921107130268473906,2.8645315047917092599,0.19810439993677525505,84,84,-0.0057858368381857872009,0,0
4.9260050164546479844e-05,2.8838927066965007739,0.10674509915782512404,0.24478521594325441946,5.5449827275530223503,0.90002670192029421425,2.8645359010685864654,0.19951999741032688807,85,85,-0.0056627336889505386353,0,0
5.3191718568882049027e-05,2.8707210037894048682,0.1076593168391127564,0.24952983400669126457,5.5484361255634819798,0.900940258841556596,2.8645412406618064871,0.20110353842278094749,86,86,-0.0055396310053765773773,0,0
5.7591859665814579381e-05,2.8561624240088989701,0.10868320881842190306,0.25453748444841822751,5.5523115600828987226,0.90196345436873603951,2.8645479938929012675,0.20287442760391385943,87,87,-0.0054165278561413288116,0,0
6.2515295182484392528e-05,2.8400961973662988136,0.10982976641392031003,0.25981130462619539401,5.5566605637616399704,0.90310919346215434711,2.8645562267877240359,0.20485420120565994706,88,88,-0.0052934251725673675537,0,0
6.8022992409606621088e-05,2.8223973972314255754,0.11111345679380402185,0.26535385750383921888,5.5615416702678057703,0.90439201722085249546,2.8645665487990052966,0.207066644836136321,89,89,-0.005170322023332118988,0,0
7.4182677859710205621e-05,2.8029374691578117229,0.11255038261753226581,0.27116716382262751051,5.5670198825792942543,0.90582793195276012366,2.8645791410376149067,0.20953804448095808555,90,90,-0.0050472193397581577301,0,0
