"epsilon","mach_number","pressure","rad_temp","rho","rhoE","rhou","temperature","GlobalNodeId","PedigreeNodeId","Points:0","Points:1","Points:2"
1.6531111839034698136e-05,2.9999333032457857762,0.099160876015679993989,0.18631035277739452227,5.5165846346571472125,0.89244788415584141994,2.8645140175997507725,0.18629824021044089077,1,1,-0.016003377735614776611,0,0
1.6531112664249394652e-05,2.999933012574342861,0.09916089319346102493,0.18631035510249582821,5.516584666775839807,0.89244789463239582172,2.8645139964923882481,0.18629827139848578743,2,2,-0.015987375751137733459,0,0
1.6531114587860858725e-05,2.9999327495655916387,0.099160910331770796278,0.18631036052240804168,5.5165847619336041419,0.89244791847147353359,2.8645140175997543253,0.18629830038350739252,3,3,-0.015971371904015541077,0,0
1.6531117607715312574e-05,2.99993245999546021,0.099160927440707175018,0.18631036903106198976,5.5165847937997041228,0.8924479288788150777,2.8645139964923935771,0.18629833145073970702,4,4,-0.015955368056893348694,0,0
1.6531121721880060794e-05,2.9999321979765709578,0.099160944517081239802,0.18631038062301086278,5.5165848887304465009,0.89244795265559406783,2.864514017599757878,0.18629836032706470483,5,5,-0.015939364209771156311,0,0
1.6531126928771944598e-05,2.999931909220073134,0.099160961575004355484,0.18631039529379231356,5.516584920410000592,0.89244796301154938334,2.8645139964923669318,0.18629839130475472908,6,6,-0.015923362225294113159,0,0
1.6531133227026488774e-05,2.9999316479045416983,0.099160978607203076329,0.18631041303955958588,5.5165850151796869127,0.89244798674380143577,2.8645140175997765297,0.18629842010352271053,7,7,-0.015907358378171920776,0,0
1.6531140615626728626e-05,2.9999313596762195999,0.09916099563180684473,0.1863104338574447516,5.5165850467383217293,0.8924479970660650352,2.8645139964923571618,0.18629845102269654289,8,8,-0.015891354531049728394,0,0
1.6531149093772279005e-05,2.9999310987796468098,0.099161012637457315866,0.18631045774518953384,5.5165851414122659691,0.89244802077141027752,2.8645140175997814147,0.18629847977481864274,9,9,-0.015875350683927536011,0,0
1.6531158661008540716e-05,2.9999308107959898884,0.099161029646314707842,0.18631048470150954333,5.5165851729151560434,0.89244803107755843463,2.8645139964923407305,0.18629851066629052325,10,10,-0.015859348699450492859,0,0
1.6531169317095691627e-05,2.9999305500358133258,0.099161046642931821582,0.18631051472572507377,5.5165852675583968434,0.89244805477352207035,2.8645140175998209386,0.1862985394024764263,11,11,-0.015843344852328300476,0,0
1.6531181062138255604e-05,2.9999302620149630449,0.099161063653510961302,0.18631054781812617094,5.5165852990702308745,0.89244806508100993359,2.8645139964923074238,0.18629857029687990622,12,12,-0.015827341005206108093,0,0
1.6531193896454019079e-05,2.999930001110097777,0.099161080658516101427,0.18631058397960331696,5.5165853937473636748,0.89244808878501313831,2.8645140175998382581,0.18629859904767856471,13,13,-0.01581133715808391571,0,0
1.65312078207039964e-05,2.9999297127715238709,0.099161097688204094536,0.1863106232120135819,5.5165854253326758183,0.89244809911123024193,2.8645139964922696763,0.18629862997550028503,14,14,-0.015795335173606872559,0,0
1.6531222835761224426e-05,2.9999294514420604685,0.099161114718946799518,0.18631066551781100271,5.5165855201081646086,0.89244812284063368413,2.8645140175999030951,0.18629865877133011676,15,15,-0.015779331326484680176,0,0
1.6531238942841127674e-05,2.9999291625063215783,0.09916113178506061332,0.18631071090041381733,5.5165855518310431549,0.89244813320288207681,2.8645139964922141651,0.18629868976294003402,16,16,-0.015763327479362487793,0,0
1.6531256143370221434e-05,2.9999289004733200592,0.09916114885882876262,0.18631075936383456604,5.5165856467690206344,0.89244815697497670293,2.8645140175999599386,0.18629871863411470723,17,17,-0.01574732363224029541,0,0
1.653127443911684284e-05,2.9999286106617373271,0.099161165978639859153,0.18631081091304840802,5.5165856786935805189,0.89244816739053101085,2.8645139964921728648,0.1862987497197962361,18,18,-0.015731321647763252258,0,0
1.6531293832059792991e-05,2.9999283476468119325,0.099161183112684972429,0.18631086555362300072,5.5165857738579688885,0.89244819122255969468,2.8645140175999976861,0.18629877869656838452,19,19,-0.015715317800641059875,0,0
1.6531314324519400064e-05,2.9999280566811941107,0.099161200303433769121,0.18631092329208787106,5.5165858060481891556,0.89244820170866123732,2.8645139964921235709,0.18629880990655128814,20,20,-0.015699313953518867493,0,0
1.6531335919026110613e-05,2.9999277924063210143,0.099161217514985397492,0.18631098413556396176,5.5165859015029266033,0.89244822561785264181,2.8645140176000358778,0.18629883901913155131,21,21,-0.01568331010639667511,0,0
1.6531358618451898266e-05,2.9999275000087100018,0.099161234793897157225,0.18631104809213411277,5.5165859340226743868,0.89244823619172597429,2.8645139964920680598,0.18629887038362097362,22,22,-0.015667308121919631958,0,0
1.653138242587878727e-05,2.9999272341958898025,0.099161252100182131763,0.18631111517047235782,5.5165860298316307109,0.89244826019530032468,2.8645140176000492005,0.18629889966221727104,23,23,-0.015651304274797439575,0,0
1.6531407344730620322e-05,2.9999269400881725112,0.099161269484492178816,0.18631118538021540498,5.5165860627449259113,0.89244827087418776568,2.8645139964920267595,0.18629893121143190071,24,24,-0.015635300427675247192,0,0
1.6531433378641494027e-05,2.9999266724592374977,0.09916128690274840507,0.18631125873159182227,5.5165861589721050251,0.89244829498938538226,2.8645140176001002708,0.18629896068626847216,25,25,-0.015619297511875629425,0,0
1.6531460531587885871e-05,2.9999263763629033797,0.099161304409715309016,0.18631133523579426758,5.5165861923430146163,0.89244830579054612585,2.8645139964920383058,0.18629899245046921408,26,26,-0.015603293664753437042,0,0
1.6531488807757035466e-05,2.9999261066391142982,0.099161321957212458789,0.18631141490460878529,5.5165862890523262863,0.89244833003461454535,2.8645140176001251398,0.18629902215183299918,27,27,-0.015587290748953819275,0,0
1.6531518211679403562e-05,2.9999258082750390741,0.099161339604132606174,0.18631149775078781339,5.5165863229450664562,0.8924483409753470875,2.8645139964920454112,0.1862990541613468165,28,28,-0.015571286901831626892,0,0
1.6531548748096985531e-05,2.999925536176900831,0.099161357298188299025,0.1863115837876793135,5.5165864202006638095,0.89244836536559446483,2.8645140176001078203,0.18629908411960674486,29,29,-0.015555283986032009125,0,0
1.653158042209612274e-05,2.9999252352649765641,0.099161375102418458649,0.18631167302960083276,5.5165864546796976597,0.89244837646325769764,2.8645139964920378617,0.18629911640486551683,30,30,-0.015539280138909816742,0,0
1.65316132389757415e-05,2.9999249605119344686,0.099161392960416733233,0.18631176549146832855,5.5165865525460926477,0.8924484010170687931,2.8645140176000856158,0.18629914665050315015,31,31,-0.015523277223110198975,0,0
1.6531647204380537134e-05,2.9999246567708546252,0.099161410939386462893,0.18631186118917136829,5.5165865876760600273,0.89244841228908577957,2.8645139964920125486,0.1862991792420696513,32,32,-0.015507273375988006592,0,0
1.65316823241691045e-05,2.999924379080911141,0.099161428978801702261,0.18631196013920156562,5.5165866862182602048,0.89244843702394727192,2.864514017600121587,0.18629920980571954003,33,33,-0.015491270460188388824,0,0
1.6531718604547501538e-05,2.9999240722278668336,0.099161447150032236419,0.18631206235902889046,5.5165867220640896207,0.89244844848782656221,2.8645139964920063314,0.18629924273431902604,34,34,-0.015475266613066196442,0,0
1.6531756051937295085e-05,2.9999237913174119363,0.099161465388436093038,0.18631216786672991081,5.5165868213472961656,0.89244847342130484424,2.8645140176001735455,0.18629927364679188528,35,35,-0.015459263697266578674,0,0
1.6531794673109476786e-05,2.9999234810677992691,0.099161483769558897428,0.1863122766813650466,5.5165868579743131406,0.89244848509466034869,2.8645139964919650311,0.18629930694334320695,36,36,-0.015443259850144386292,0,0
1.6531834475052447925e-05,2.999923196651300028,0.099161502224641651093,0.18631238882260653389,5.5165869580641295755,0.8924485102444408291,2.8645140176001797627,0.18629933823565911211,37,37,-0.015427256934344768524,0,0
1.6531875465106280929e-05,2.9999228827184611923,0.099161520833418281828,0.18631250431111687216,5.516586995538379945,0.89244852214504299948,2.8645139964919388298,0.18629937193130130524,38,38,-0.015411253087222576141,0,0
1.6531917650830616102e-05,2.9999225945081504641,0.099161539523007991015,0.18631262316817642777,5.5165870965009489169,0.8924485475289467562,2.8645140176001939736,0.18629940363472086151,39,39,-0.015395250171422958374,0,0
1.65319610401393026e-05,2.9999222766030779752,0.099161558377343458903,0.18631274541606279715,5.5165871348888808612,0.89244855967469693958,2.8645139964919241748,0.18629943776084886831,40,40,-0.015379246324300765991,0,0
1.6532005641168213853e-05,2.9999219843087137072,0.099161577319420615706,0.18631287107767846578,5.5165872367908992402,0.89244858531069426455,2.8645140176002024113,0.18629946990690038344,41,41,-0.015363243408501148224,0,0
1.6532051462410237515e-05,2.9999216621397177818,0.099161596437385965408,0.18631300017693100401,5.5165872761596173035,0.89244859771966233986,2.8645139964919223985,0.18629950449519888656,42,42,-0.015347239561378955841,0,0
1.6532098512583012962e-05,2.9999213654683556385,0.099161615650097983954,0.18631313273836044853,5.5165873790683290778,0.89244862362589028049,2.8645140176001864241,0.18629953711570579333,43,43,-0.015331236645579338074,0,0
1.65321468007643041e-05,2.999921038740819057,0.099161635049945129339,0.18631326878752063614,5.5165874194856341362,0.8924486363163260938,2.8645139964919210662,0.18629957219817572245,44,44,-0.015315232798457145691,0,0
1.6532196336259638602e-05,2.9999207373963243661,0.099161654551637987143,0.18631340835060639094,5.5165875234692238749,0.89244866251113097455,2.8645140176002104049,0.18629960532530276396,45,45,-0.015299229882657527924,0,0
1.653224712873804664e-05,2.9999204058125297223,0.099161674251809064917,0.18631355145483580182,5.5165875650034639222,0.89244867550146367297,2.8645139964919206221,0.18629964093428399985,46,46,-0.015283226035535335541,0,0
1.6532299188099622197e-05,2.9999200994954415833,0.099161694061033131553,0.18631369812807707653,5.5165876701307805519,0.89244870200338688448,2.8645140176002281684,0.1862996746005574078,47,47,-0.015267223119735717773,0,0
1.6532352524611641261e-05,2.9999197627541205335,0.099161714080190532794,0.18631384839923209595,5.5165877128511917604,0.89244871531227187855,2.8645139964919064113,0.18629971076877357983,48,48,-0.015251219272613525391,0,0
1.6532407148776028275e-05,2.9999194511613618275,0.099161734215720276353,0.1863140022978629351,5.5165878191919359708,0.89244874214008251823,2.864514017600241047,0.18629974500711191099,49,49,-0.015235216356813907623,0,0
1.6532463071465843641e-05,2.9999191089574095415,0.099161754572763716187,0.18631415985457638884,5.5165878631686986466,0.89244875578641280622,2.8645139964918957531,0.18629978176770067844,50,50,-0.01521921250969171524,0,0
1.6532520303792699342e-05,2.999918791781948979,0.099161775053618186893,0.18631432110065032637,5.516587970793485951,0.89244878295912544175,2.8645140176002685806,0.18629981661145103566,51,51,-0.015203209593892097473,0,0
1.6532578857243568316e-05,2.9999184438062567182,0.09916179576769339199,0.18631448606841927162,5.5165880160975255819,0.89244879696202739083,2.8645139964918406861,0.18629985399798706935,52,52,-0.01518720574676990509,0,0
1.653263874354815943e-05,2.9999181207368490476,0.099161816613153194733,0.18631465479090053572,5.5165881250780133271,0.89244882449892493081,2.8645140176002943377,0.18629988948095274615,53,53,-0.015171202830970287323,0,0
1.6532699974816096155e-05,2.9999177666758845007,0.099161837703681865452,0.18631482730218079658,5.5165881717814988505,0.89244883887782011644,2.8645139964918193698,0.18629992752748716911,54,54,-0.01515519898384809494,0,0
1.6532762563404196669e-05,2.9999174373967489871,0.099161858933305729868,0.18631500363704212031,5.5165882821902210154,0.89244886679844448452,2.8645140176003200949,0.18629996368396448125,55,55,-0.015139196068048477173,0,0
1.6532826522054048948e-05,2.9999170769322995866,0.099161880419998418845,0.18631518383134942907,5.5165883303663338921,0.892448881573037478,2.8645139964918064912,0.18630000242505687091,56,56,-0.01512319222092628479,0,0
1.6532891863759192615e-05,2.9999167411228424562,0.099161902053643710686,0.18631536792167643912,5.51658844227699241,0.89244890989723657526,2.8645140176003494048,0.18630003928986366146,57,57,-0.015107189305126667023,0,0
1.6532958601903087047e-05,2.9999163739317307176,0.099161923956517725176,0.18631555594569415568,5.516588492000018995,0.89244892508753581595,2.8645139964917922804,0.18630007876061266403,58,58,-0.01509118545800447464,0,0
1.6533026750126232244e-05,2.9999160312661854455,0.099161946014362165047,0.18631574794179661669,5.5165886054875441502,0.89244895383548084045,2.8645140176003898169,0.1863001163691271056,59,59,-0.015075182542204856873,0,0
1.653309632246447575e-05,2.9999156570199727589,0.099161968353758941919,0.18631594394949044236,5.5165886568329138839,0.89244896946180785058,2.8645139964917460951,0.1863001566052016611,60,60,-0.01505917869508266449,0,0
1.6533167333216092855e-05,2.9999153071671869064,0.099161990856313816933,0.18631614400902030138,5.5165887719734723049,0.8924489986540047326,2.8645140176004124655,0.18630019499338687505,61,61,-0.015043175779283046722,0,0
1.6533239797080476386e-05,2.9999149255317707485,0.099162013652927927243,0.18631634816175959846,5.5165888250181147612,0.89244901473705551265,2.8645139964917314401,0.18630023603106879437,62,62,-0.01502717193216085434,0,0
1.6533313729025122038e-05,2.9999145681548351483,0.099162036621058990971,0.18631655644983574627,5.5165889418890934337,0.89244904439435213117,2.8645140176004311172,0.18630027523551268009,63,63,-0.015011169016361236572,0,0
1.6533389144424721348e-05,2.9999141787902248169,0.099162059895947646249,0.18631676891652199091,5.5165889967111585435,0.89244906095517129163,2.8645139964917016862,0.18630031711172367892,64,64,-0.014995165169239044189,0,0
1.6533466058928075878e-05,2.9999138135462075638,0.099162083350894436595,0.18631698560586232305,5.5165891153913584333,0.89244909109879799747,2.8645140176004235677,0.18630035716966861226,65,65,-0.014979162253439426422,0,0
1.6533544488597576441e-05,2.9999134161061560278,0.099162107125502954585,0.18631720656306446915,5.5165891720705655388,0.8924491081588257213,2.8645139964916834785,0.18630039992200669863,66,66,-0.014963158406317234039,0,0
1.6533624449776046126e-05,2.9999130426456321885,0.099162131088905702825,0.18631743183412471931,5.5165892926402770868,0.89244913881040366377,2.8645140176003991428,0.18630044087139743803,67,67,-0.014947155490517616272,0,0
1.653370595922661255e-05,2.9999126367774389124,0.099162155385079026049,0.1863176614662218622,5.5165893512577524049,0.89244915639148225672,2.8645139964916701558,0.186300484538163863,68,68,-0.014931151643395423889,0,0
1.6533789033999479734e-05,2.9999122547442551578,0.099162179878997072646,0.18631789550734187411,5.5165894737990477381,0.89244918757307345469,2.8645140176004515453,0.18630052641767255728,69,69,-0.014915148727595806122,0,0
1.653387369157220354e-05,2.9999118400883166835,0.099162204719004734543,0.18631813400667301961,5.5165895344373208076,0.8924492056974488996,2.864513996491671044,0.18630057103791872186,70,70,-0.014899144880473613739,0,0
1.6533959949716399174e-05,2.9999114491193585863,0.099162229765925938296,0.18631837701423020759,5.5165896590336531702,0.89244923743152548834,2.8645140176005012833,0.18630061388697580216,71,71,-0.014883141964673995972,0,0
1.6534047826638399481e-05,2.9999110253087328815,0.099162255172491983735,0.18631862458125136861,5.5165897217770787364,0.89244925612189973663,2.8645139964916466191,0.18630065950054558455,72,72,-0.014867138117551803589,0,0
1.6534137340845921792e-05,2.9999106250335256796,0.09916228079536021367,0.18631887675982161667,5.5165898485135578255,0.89244928843139326169,2.8645140176005039478,0.18630070335938231363,73,73,-0.014851135201752185822,0,0
1.6534228511289119241e-05,2.9999101916938815116,0.099162306791668763939,0.18631913360327065354,5.5165899134482971888,0.8924493077109512118,2.8645139964916217501,0.18630075000692281062,74,74,-0.014835131354629993439,0,0
1.6534321357227173071e-05,2.9999097817341238148,0.099162333013912529189,0.18631939516579681948,5.5165900424119680423,0.89244934061928005153,2.8645140176005270405,0.18630079491661558078,75,75,-0.014819128438830375671,0,0
1.6534415898369767472e-05,2.9999093384831017062,0.099162359623642198914,0.18631966150286555228,5.5165901096258913583,0.89244936051167955693,2.8645139964915906639,0.18630084263964521996,76,76,-0.014803124591708183289,0,0
1.6534512154743627677e-05,2.9999089184524923013,0.099162386469185265225,0.18631993267083354904,5.5165902409055949107,0.89244939404275747119,2.8645140176005527977,0.18630088864214017219,77,77,-0.014787121675908565521,0,0
1.6534610146834387816e-05,2.9999084648995224534,0.099162413716523525875,0.18632020872734800232,5.5165903104885147812,0.89244941457217241698,2.8645139964915626862,0.18630093748306778001,78,78,-0.014771117828786373138,0,0
1.6534709895453081585e-05,2.9999080344032660328,0.099162441209815654908,0.1863204897309707897,5.516590444175092145,0.89244944875044041055,2.8645140176006069765,0.18630098462123176328,79,79,-0.014755114912986755371,0,0
1.6534811421878420064e-05,2.9999075701492232682,0.099162469119478666157,0.1863207757415789867,5.5165905162186783528,0.8924494699415655985,2.86451399649152183,0.18630103462339664411,80,80,-0.014739111065864562988,0,0
1.6534914747723251889e-05,2.9999071287837488775,0.099162497285511741474,0.1863210668199886122,5.5165906524048882176,0.89244950479199791626,2.8645140176006314015,0.18630108294105024447,81,81,-0.014723108150064945221,0,0
1.653501989507722393e-05,2.9999066534204987811,0.099162525882774910091,0.1863213630283565847,5.5165907270030398735,0.89244952667009858072,2.8645139964914725361,0.18630113414876717237,82,82,-0.014707104302942752838,0,0
1.6535126886373207586e-05,2.999906200773106324,0.099162554747106321229,0.18632166442980416243,5.5165908657837858797,0.89244956221823845688,2.8645140176006496091,0.18630118369072093398,83,83,-0.014691101387143135071,0,0
1.6535235744530399913e-05,2.9999057138831162206,0.099162584057826672068,0.18632197108882014858,5.5165909430325532625,0.89244958480916058985,2.8645139964914343444,0.18630123614932467269,84,84,-0.014675097540020942688,0,0
1.6535346492820685547e-05,2.9999052495315314815,0.099162613646607056239,0.18632228307088427588,5.5165910845050039057,0.8924496210811481145,2.8645140176007055643,0.18630128696142717049,85,85,-0.014659094624221324921,0,0
1.6535459155012151192e-05,2.9999047506875546887,0.099162643697241356633,0.18632260044287138334,5.5165911645025644816,0.89244964441132446087,2.8645139964914019259,0.18630134071730741763,86,86,-0.014643090777099132538,0,0
1.6535573755235437364e-05,2.9999042741995833872,0.099162674037234652125,0.18632292327267491183,5.5165913087660598535,0.89244968143390634996,2.864514017600753526,0.18630139284648614129,87,87,-0.014627087861299514771,0,0
1.6535690318127666242e-05,2.9999037629643159342,0.099162704854863684134,0.18632325162961213549,5.5165913916129891703,0.89244970553040492423,2.8645139964913717279,0.18630144794712388823,88,88,-0.014611084014177322388,0,0
1.6535808868698749366e-05,2.9999032738974267254,0.099162735973473886686,0.18632358558404760185,5.5165915387692905369,0.89244974333096860342,2.864514017600803264,0.18630150144142704205,89,89,-0.01459508109837770462,0,0
1.6535929432475766102e-05,2.9999027498229815514,0.09916276758583375539,0.18632392520779966771,5.516591624568610186,0.89244976822151189655,2.864513996491357517,0.18630155793545191689,90,90,-0.014579077251255512238,0,0
