"epsilon","mach_number","pressure","rad_temp","rho","rhoE","rhou","temperature","GlobalNodeId","PedigreeNodeId","Points:0","Points:1","Points:2"
1.6531632899894976125e-05,2.999932449582026539,0.099160928362137495951,0.18631182088622755266,5.516585122271012942,0.89244793303877267832,2.8645140871221812517,0.18629832208920465986,1,1,-0.016003377735614776611,0,0
1.6531640505609923131e-05,2.9999314417169453684,0.099160990831894946229,0.18631184231536232487,5.5165853535306377253,0.89244799554531628605,2.8645140870811212075,0.18629843164431203473,2,2,-0.015950856730341911316,0,0
1.6531661247587062626e-05,2.9999304366848389414,0.099161053122531817028,0.18631190075593501154,5.5165855849881086925,0.89244805787028047561,2.8645140872591650094,0.18629854085620653481,3,3,-0.015898337587714195251,0,0
1.6531695078137487615e-05,2.9999294317159241885,0.099161115405744112983,0.18631199607347787017,5.5165858172745467769,0.89244812018547425847,2.8645140876550585496,0.18629865002614823255,4,4,-0.015845816582441329956,0,0
1.6531741985729044421e-05,2.9999284240626113984,0.099161177851842946529,0.18631212823532927736,5.5165860510183239995,0.89244818266131442641,2.8645140882681516814,0.18629875945288804084,5,5,-0.015793295577168464661,0,0
1.6531801994667512872e-05,2.999927410991817478,0.099161240630231239912,0.18631229730973519754,5.5165862868468034108,0.89244824546730394665,2.8645140890983964432,0.18629886943350451589,6,6,-0.015740774571895599365,0,0
1.6531875164878241208e-05,2.999926389777363589,0.099161303909874751183,0.18631250346523223205,5.5165865253880648211,0.89244830877250036494,2.8645140901463359562,0.18629898026423069579,7,7,-0.01568825356662273407,0,0
1.6531961591786904168e-05,2.9999253576924895803,0.099161367859766286204,0.18631274697030941745,5.5165867672726065507,0.89244837274598287635,2.8645140914131044241,0.1862990922412685324,8,8,-0.015635732561349868774,0,0
1.6532061406298232303e-05,2.9999243120023924014,0.099161432649388162042,0.18631302819334494281,5.5165870131350596139,0.89244843755731340096,2.8645140929004262453,0.18629920566160010353,9,9,-0.015583212487399578094,0,0
1.6532174774871902738e-05,2.999923249956829796,0.099161498449170784597,0.18631334760281581531,5.5165872636158859166,0.89244850337699721532,2.8645140946106151247,0.18629932082379163649,10,10,-0.015530691482126712799,0,0
1.6532301899695015407e-05,2.9999221687826973515,0.09916156543095247522,0.18631370576777872561,5.5165875193630800055,0.89244857037694103052,2.8645140965465736294,0.18629943802879991854,11,11,-0.015478170476853847504,0,0
1.6532443018950849833e-05,2.9999210656766681637,0.099161633768436008296,0.18631410335862100269,5.5165877810338850296,0.89244863873091151429,2.8645140987118007381,0.18629955758077215711,12,12,-0.015425649471580982208,0,0
1.6532598407183882118e-05,2.9999199377977290304,0.099161703637650880361,0.18631454114808196354,5.5165880492965166937,0.89244870861499592252,2.8645141011103931739,0.18629967978785622051,13,13,-0.015373129397630691528,0,0
1.6532768375761295926e-05,2.9999187822597588315,0.099161775217413469785,0.18631502001254479639,5.5165883248318934307,0.89244878020806472918,2.8645141037470533973,0.18629980496300668769,14,14,-0.015320608392357826233,0,0
1.6532953273431482126e-05,2.9999175961239585853,0.099161848689796064371,0.18631554093360083724,5.5165886083354109815,0.8924488536922386972,2.8645141066270976005,0.18629993342480610785,15,15,-0.015268087387084960938,0,0
1.6533153486980279266e-05,2.9999163763912646274,0.099161924240597026925,0.18631610499988757179,5.5165889005187125349,0.89244892925336016809,2.8645141097564628119,0.18630006549828848073,16,16,-0.015215566381812095642,0,0
1.6533369441985961139e-05,2.9999151199946165747,0.099162002059820134048,0.18631671340920377689,5.5165892021115183752,0.89244900708147367752,2.8645141131417237723,0.18630020151577816878,17,17,-0.015163046307861804962,0,0
1.65336016036742725e-05,2.9999138237911298077,0.099162082342159216242,0.18631736747090493767,5.5165895138634706285,0.89244908737130834719,2.8645141167901013723,0.18630034181773785784,18,18,-0.015110525302588939667,0,0
1.6533850477875047748e-05,2.9999124845540805495,0.099162165287495079857,0.18631806860858338148,5.5165898365460233066,0.89244917032277604196,2.864514120709475975,0.18630048675363858335,19,19,-0.015058004297316074371,0,0
1.6534116612082198119e-05,2.9999110989647927994,0.099162251101398327102,0.18631881836303759714,5.5165901709543767595,0.89244925614147563309,2.864514124908408732,0.1863006366828387772,20,20,-0.015005483292043209076,0,0
1.6534400596619184978e-05,2.999909663604260146,0.099162339995648135504,0.18631961839553726201,5.516590517909471636,0.892449345039209474,2.864514129396156239,0.18630079197549176406,21,21,-0.014952963218092918396,0,0
1.6534703065912286521e-05,2.999908174944621031,0.099162432188760779583,0.1863204704913894727,5.5165908782600192595,0.89244943723451419793,2.8645141341826909631,0.18630095301347002201,22,22,-0.014900442212820053101,0,0
1.6535024699874287078e-05,2.9999066293403857664,0.099162527906533057265,0.18632137656381414503,5.5165912528846021701,0.89244953295320272879,2.8645141392787230039,0.18630112019131525591,23,23,-0.014847921207547187805,0,0
1.65353662254015367e-05,2.9999050230193935462,0.099162627382602536175,0.18632233865813599416,5.5165916426938421679,0.89244963242892527688,2.8645141446957227416,0.18630129391721761412,24,24,-0.01479540020227432251,0,0
1.6535728417987511653e-05,2.9999033520735198799,0.099162730859023356933,0.18632335895630219857,5.5165920486326314176,0.89244973590374521155,2.8645141504459483706,0.1863014746140222444,25,25,-0.01474288012832403183,0,0
1.6536112103456389316e-05,2.9999016124490731627,0.099162838586861326573,0.18632443978173507393,5.516592471682447929,0.89244984362873358563,2.8645141565424698804,0.18630166272026893459,26,26,-0.014690359123051166534,0,0
1.6536518159820435582e-05,2.9998997999368777201,0.09916295082680820494,0.18632558360453024826,5.5165929128637376522,0.89244995586458464309,2.8645141629992005861,0.18630185869126578146,27,27,-0.014637838117778301239,0,0
1.6536947519265263737e-05,2.9998979101620055765,0.099163067849818015143,0.18632679304701135758,5.5165933732384067056,0.89245007288225119968,2.8645141698309286582,0.18630206300020052401,28,28,-0.014585317112505435944,0,0
1.6537401170267399892e-05,2.9998959385731343019,0.099163189937766321735,0.1863280708896536686,5.5165938539123891005,0.89245019496360389333,2.8645141770533490977,0.18630227613929220554,29,29,-0.014532797038555145264,0,0
1.6537880159848874616e-05,2.9998938804315127271,0.099163317384133933818,0.1863294200773889242,5.5165943560383139399,0.89245032240211552566,2.8645141846831001509,0.18630249862098574587,30,30,-0.014480276033282279968,0,0
1.6538385595973956882e-05,2.9998917307995194292,0.099163450494715824068,0.18633084372630620562,5.5165948808182960761,0.89245045550356927322,2.8645141927378001689,0.18630273097918947922,31,31,-0.014427755028009414673,0,0
1.6538918650093356426e-05,2.9998894845287296107,0.099163589588360495641,0.18633234513076243899,5.5165954295068226898,0.89245059458679976139,2.8645142012360937933,0.1863029737705665656,32,32,-0.014375234022736549377,0,0
1.6539480559841800074e-05,2.999887136247513908,0.099163734997738228749,0.18633392777091947745,5.5165960034137668799,0.892450739984458008,2.8645142101976839299,0.1863032275758766676,33,33,-0.014322713948786258698,0,0
1.6540072631895019663e-05,2.999884680348172239,0.099163887070138512225,0.18633559532072321852,5.5165966039075300387,0.89245089204381233827,2.8645142196433872606,0.18630349300136769819,34,34,-0.014270192943513393402,0,0
1.6540696244992785522e-05,2.9998821109734552515,0.099164046168305042261,0.1863373516563438248,5.5165972324183156772,0.89245105112758116306,2.8645142295951773193,0.18630377068023418197,35,35,-0.014217671938240528107,0,0
1.654135285313485326e-05,2.9998794220025515322,0.099164212671304097224,0.18633920086509483949,5.516597890441546248,0.89245121761480217248,2.8645142400762355628,0.18630406127413304262,36,36,-0.014165151864290237427,0,0
1.6542043988957254042e-05,2.9998766070364917269,0.099164386975428911453,0.18634114725485156905,5.5165985795414371751,0.89245139190173683463,2.8645142511110095462,0.18630436547476197928,37,37,-0.014112630859017372131,0,0
1.6542771267296656657e-05,2.9998736593828048136,0.099164569495150498013,0.18634319536398988304,5.5165993013547236501,0.89245157440281985828,2.8645142627252613288,0.18630468400551972175,38,38,-0.014060109853744506836,0,0
1.6543536388951088774e-05,2.9998705720396565688,0.099164760664100654042,0.18634534997186730232,5.5166000575945579598,0.89245176555164451582,2.8645142749461371956,0.18630501762322129733,39,39,-0.014007588848471641541,0,0
1.6544341144645721486e-05,2.9998673376790878642,0.09916496093611054663,0.18634761610987021774,5.5166008500545871129,0.89245196580199759318,2.8645142878022209487,0.18630536711991113608,40,40,-0.013955068774521350861,0,0
1.6545187419212932858e-05,2.9998639486296818646,0.099165170786285020132,0.186349999073051803,5.516601680613213432,0.89245217562893786045,2.8645143013236102902,0.18630573332473782111,41,41,-0.013902547769248485565,0,0
1.6546077195996371033e-05,2.9998603968582520096,0.099165390712137563289,0.18635250443238665641,5.5166025512380585383,0.89245239552992750021,2.8645143155419803271,0.18630611710593494856,42,42,-0.01385002676397562027,0,0
1.6547012561489232111e-05,2.9998566739508221168,0.099165621234768894232,0.18635513804766964951,5.51660346399063517,0.89245262602601238555,2.8645143304906603987,0.18630651937287789899,43,43,-0.013797505758702754974,0,0
1.6547995710217659201e-05,2.999852771092665904,0.09916586290010427629,0.18635790608108798727,5.5166044210312286111,0.89245286766305809145,2.8645143462047095717,0.18630694107824294359,44,44,-0.013744985684752464294,0,0
1.6549028949880541733e-05,2.9998486790474099273,0.099166116280189064991,0.18636081501149640016,5.5166054246240223691,0.89245312101304730135,2.8645143627210032378,0.18630738322026835219,45,45,-0.013692464679479598999,0,0
1.6550114706757817438e-05,2.9998443881351430917,0.09916638197454509529,0.18636387164942794237,5.5166064771424672131,0.89245338667543383515,2.8645143800783166022,0.18630784684512072258,46,46,-0.013639943674206733704,0,0
1.6551255531399877458e-05,2.9998398882095274054,0.099166660611590101704,0.18636708315287323079,5.5166075810748909092,0.89245366527856262451,2.8645143983174135016,0.18630833304937227668,47,47,-0.013587422668933868408,0,0
1.6552454104611393333e-05,2.9998351686337692001,0.099166952850127054742,0.18637045704386387412,5.5166087390303886195,0.89245395748115929901,2.8645144174811458804,0.18630884298259958731,48,48,-0.013534902594983577728,0,0
1.6553713243743596118e-05,2.9998302182555032225,0.099167259380901609522,0.18637400122589642404,5.516609953745003736,0.89245426397388782913,2.864514437614552822,0.18630937785010051599,49,49,-0.013482381589710712433,0,0
1.6555035909309698565e-05,2.999825025380416843,0.099167580928237269999,0.18637772400223592828,5.5166112280881955954,0.89245458548098477447,2.8645144587649689072,0.18630993891574754162,50,50,-0.013429860584437847137,0,0
1.6556425211939055953e-05,2.9998195777445881838,0.099167918251750530878,0.18638163409513933133,5.5166125650696136162,0.89245492276197346815,2.8645144809821263543,0.18631052750498078296,51,51,-0.013377339579164981842,0,0
1.6557884419686254047e-05,2.999813862485598559,0.099168272148142500022,0.18638574066604127188,5.5166139678462267071,0.89245527661345758208,2.8645145043182864697,0.18631114500793297117,52,52,-0.013324819505214691162,0,0
1.6559416965712427377e-05,2.999807866112110144,0.099168643453085278394,0.18639005333674688036,5.5166154397297715306,0.89245564787100528648,2.8645145288283480056,0.18631179288272120553,53,53,-0.013272298499941825867,0,0
1.6561026456356676853e-05,2.9998015744720536446,0.099169033043195242705,0.18639458221167792829,5.5166169841945755792,0.89245603741112322638,2.8645145545699857159,0.18631247265888958853,54,54,-0.013219777494668960571,0,0
1.656271667961664156e-05,2.9997949727192421143,0.099169441838103708498,0.18639933790122120705,5.5166186048857719371,0.89245644615332653249,2.8645145816037822506,0.18631318594102147523,55,55,-0.013167256489396095276,0,0
1.6564491614058143561e-05,2.9997880452783753924,0.099169870802627735351,0.18640433154623006762,5.5166203056278924066,0.89245687506231041741,2.8645146099933711525,0.18631393441252697141,56,56,-0.013114736415445804596,0,0
1.6566355438174756274e-05,2.9997807758082859486,0.099170320949050469461,0.18640957484373263386,5.5166220904339091646,0.89245732515022868636,2.8645146398055874037,0.18631471983962086258,57,57,-0.013062215410172939301,0,0
1.6568312540219397208e-05,2.9997731471634465628,0.09917079333950908071,0.18641508007390197865,5.5166239635147045206,0.89245779747908227097,2.8645146711106241888,0.18631554407548853169,58,58,-0.013009694404900074005,0,0
1.6570367528530967409e-05,2.9997651413535537657,0.099171289088502853626,0.18642086012834727105,5.5166259292890096333,0.89245829316322666802,2.8645147039821972079,0.18631640906466134799,59,59,-0.01295717339962720871,0,0
1.6572525242380344073e-05,2.9997567395011626168,0.099171809365521987334,0.18642692853978579115,5.5166279923938272844,0.89245881337200094752,2.8645147384977200922,0.18631731684760249879,60,60,-0.01290465332567691803,0,0
1.6574790763361255905e-05,2.9997479217972178311,0.0991723553978077349,0.18643329951316028881,5.5166301576953786778,0.89245935933248676797,2.8645147747384847037,0.18631826956552183239,61,61,-0.012852132320404052734,0,0
1.657716942735277697e-05,2.999738667454398211,0.099172928473248253556,0.18643998795826755011,5.516632430300581369,0.8924599323324047262,2.8645148127898543144,0.18631926946542756718,62,62,-0.012799611315131187439,0,0
1.6579666837081597787e-05,2.999728954658187785,0.099173529943416105503,0.18644700952396736637,5.5166348155691062871,0.89246053372315103935,2.8645148527414652229,0.18632031890542449792,63,63,-0.012747090309858322144,0,0
1.6582288875313638533e-05,2.9997187605155253287,0.09917416122675640211,0.18645438063404426443,5.5166373191260085207,0.89246116492298444012,2.8645148946874341433,0.18632142036027543597,64,64,-0.012694570235908031464,0,0
1.6585041718705971844e-05,2.9997080610009172474,0.099174823811933029982,0.18646211852479718796,5.5166399468750064727,0.89246182742037361013,2.8645149387265842478,0.18632257642723820679,65,65,-0.012642049230635166168,0,0
1.6587931852351727e-05,2.9996968308999250041,0.099175519261338399013,0.18647024128443556723,5.5166427050123996167,0.89246252277750526272,2.8645149849626756478,0.18632378983218730872,66,66,-0.012589528225362300873,0,0
1.6590966085052121068e-05,2.9996850437498521202,0.099176249214777661978,0.18647876789436337863,5.5166456000416834726,0.89246325263396864003,2.8645150335046505319,0.18632506343604046672,67,67,-0.012537008151412010193,0,0
1.6594151565351561699e-05,2.9996726717774633286,0.099177015393337633609,0.18648771827243626475,5.5166486387888991061,0.89246401871062241984,2.8645150844668902934,0.18632640024150645686,68,68,-0.012484487146139144897,0,0
1.6597495798373589087e-05,2.9996596858337372105,0.099177819603441352836,0.18649711331828022765,5.5166518284187109344,0.89246482281365135947,2.8645151379694828719,0.18632780340015739351,69,69,-0.012431966140866279602,0,0
1.6601006663497203352e-05,2.9996460553252943804,0.09917866374110928529,0.1865069749607638494,5.51665517645131942,0.89246566683882477822,2.8645151941385100791,0.18632927621986047906,70,70,-0.012379445135593414307,0,0
1.6604692432915214118e-05,2.9996317481424918938,0.099179549796428734254,0.18651732620771940829,5.5166586907801882234,0.89246655277596576017,2.8645152531063406975,0.18633082217257335156,71,71,-0.012326925061643123627,0,0
1.6608561791118237852e-05,2.9996167305839480655,0.099180479858246253788,0.1865281911980125884,5.51666237969065687,0.89246748271364328975,2.8645153150119431196,0.18633244490252812153,72,72,-0.012274404056370258331,0,0
1.6612623855350235221e-05,2.9996009672773942256,0.099181456119089558832,0.186539595256063645,5.5166662518794824521,0.89246845884409420346,2.8645153800012170819,0.18633414823481481148,73,73,-0.012221883051097393036,0,0
1.6616888197083652499e-05,2.9995844210965421084,0.099182480880337584028,0.18655156494892663477,5.5166703164753387867,0.89246948346839172217,2.8645154482273329499,0.18633593618439836526,74,74,-0.01216936204582452774,0,0
1.6621364864564724733e-05,2.9995670530738922643,0.099183556557644714236,0.18656412814603814954,5.5166745830603511891,0.89247055900186811339,2.8645155198510936501,0.18633781296557780371,75,75,-0.012116841971874237061,0,0
1.6626064406481971694e-05,2.9995488223092419133,0.099184685686634341262,0.18657731408174962895,5.5166790616926775215,0.89247168797980913624,2.8645155950413152546,0.18633978300191547661,76,76,-0.012064320966601371765,0,0
1.6630997896813590903e-05,2.9995296858736719692,0.099185870928874306229,0.18659115342076249,5.5166837629302323265,0.89247287306342859559,2.8645156739752244413,0.18634185093665708854,77,77,-0.01201179996132850647,0,0
1.663617696091212523e-05,2.9995095987087609934,0.099187115078151713576,0.18660567832658853105,5.5166886978555780274,0.89247411704614110217,2.8645157568388772695,0.18634402164367394605,78,78,-0.011959278956055641174,0,0
1.6641613802887865789e-05,2.9994885135208728677,0.09918842106705594297,0.18662092253316273083,5.5166938781020595783,0.89247542286014447388,2.8645158438275957202,0.18634630023894163675,79,79,-0.011906758882105350494,0,0
1.6647321234355283307e-05,2.999466380670223753,0.099189791973889038235,0.18663692141973886596,5.516699315881218979,0.89247679358333087407,2.8645159351464295483,0.18634869209259022349,80,80,-0.011854237876832485199,0,0
1.6653312704610213332e-05,2.9994431480544152535,0.099191231029922721785,0.18665371208920358836,5.5167050240116086712,0.89247823244654056474,2.8645160310106416723,0.18635120284155726189,81,81,-0.011801716871559619904,0,0
1.6659602332308627581e-05,2.9994187609863089961,0.099192741627010611039,0.18667133344994676913,5.5167110159489940457,0.89247974284117448374,2.8645161316462117718,0.18635383840286071089,82,82,-0.011749195866286754608,0,0
1.666620493872164889e-05,2.9993931620658198511,0.09919432732558204624,0.18668982630143224344,5.5167173058180916101,0.89248132832718629626,2.8645162372903736347,0.18635660498753586767,83,83,-0.011696675792336463928,0,0
1.6673136082644845227e-05,2.9993662910454279569,0.099195991863030838487,0.18670923342361439579,5.5167239084458667975,0.8924829926414717951,2.8645163481921738224,0.18635950911526089069,84,84,-0.011644154787063598633,0,0
1.6680412097043971747e-05,2.9993380846889943214,0.099197739162524181666,0.18672959967035188122,5.5167308393964926694,0.8924847397066735244,2.8645164646130552022,0.18636255762971443151,85,85,-0.011591633781790733337,0,0
1.6688050127523277021e-05,2.9993084766237236849,0.099199573342243843599,0.18675097206697199859,5.5167381150080467833,0.89248657364042460749,2.8645165868274808929,0.1863657577146851374,86,86,-0.011539112776517868042,0,0
1.6696068172706812852e-05,2.9992773971847279668,0.099201498725092013276,0.18677339991214328419,5.5167457524310359318,0.89248849876504987577,2.8645167151235759739,0.18636911691099189436,87,87,-0.011486592702567577362,0,0
1.6704485126627632299e-05,2.9992447732520290948,0.099203519848874377463,0.18679693488421683645,5.5167537696688278004,0.8924905196177491673,2.864516849803809162,0.18637264313423401729,88,88,-0.011434071697294712067,0,0
1.6713320823224490382e-05,2.9992105280794620903,0.099205641476993886019,0.18682163115219985183,5.516762185620100567,0.89249264096128921864,2.8645169911857051304,0.18637634469343175581,89,89,-0.011381550692021846771,0,0
1.6722596083050628927e-05,2.9991745811152323853,0.099207868609671165383,0.18684754549152732261,5.5167710201234054779,0.8924948677952240228,2.8645171396025981281,0.18638023031058287282,90,90,-0.011329029686748981476,0,0
