"epsilon","mach_number","pressure","rad_temp","rho","rhoE","rhou","temperature","GlobalNodeId","PedigreeNodeId","Points:0","Points:1","Points:2"
1.6531053547057126602e-05,2.9999333048140317537,0.099160876026663874461,0.18631018853536754354,5.5165846386355932296,0.89244788491567417221,2.8645140200642487116,0.1862982400967224117,1,1,-0.016003377735614776611,0,0
1.6531060472001190691e-05,2.9999323789584604327,0.099160932386422373508,0.18631020804694053972,5.5165848080628245853,0.89244793309491143862,2.8645139940280470725,0.18629834026081509846,2,2,-0.015950033441185951233,0,0
1.6531079389977900053e-05,2.999931491298196029,0.099160988420581311353,0.18631026134979231101,5.5165850555193127747,0.89244799730530088855,2.8645140200643313122,0.18629843717808675096,3,3,-0.015896689146757125854,0,0
1.6531110257884451732e-05,2.9999305721314359907,0.099161044359371702805,0.18631034832239062871,5.5165852234144514554,0.89244804505951946805,2.864513994027905408,0.18629853660301287643,4,4,-0.015843344852328300476,0,0
1.6531153065946902056e-05,2.9999296861190951624,0.099161100285025199907,0.18631046893705530132,5.5165854704987422608,0.89244810915750438784,2.8645140200645227146,0.18629863332898349837,5,5,-0.015790000557899475098,0,0
1.653120783926236969e-05,2.9999287633270479425,0.099161156442119730015,0.18631062326430289366,5.516585639232571836,0.89244815712597069801,2.8645139940278134816,0.18629873313571126969,6,6,-0.015736654400825500488,0,0
1.6531274635742293949e-05,2.9999278687274260058,0.099161212893609892993,0.18631081146705055773,5.5165858882968885624,0.89244822174581972529,2.8645140200645040629,0.18629883078271303187,7,7,-0.01568331010639667511,0,0
1.6531353547861039454e-05,2.9999269321222445939,0.099161269900396697974,0.18631103380554053794,5.5165860602120826428,0.89244827055995101794,2.8645139940278161461,0.18629893207834713476,8,8,-0.015629965811967849731,0,0
1.6531444700782547237e-05,2.9999260187675669265,0.099161327507823748828,0.18631129063205925656,5.5165863135937689421,0.89244833633169595721,2.8645140200645506923,0.18629903175124462589,9,9,-0.015576621517539024353,0,0
1.6531548254310973696e-05,2.9999250581707532781,0.099161385995032783058,0.18631158239642953145,5.516586491030126993,0.89244838662212566671,2.8645139940278325774,0.18629913564174940821,10,10,-0.015523277223110198975,0,0
1.6531664401197410747e-05,2.9999241158444100996,0.099161445391456271015,0.18631190964123528486,5.5165867510778037186,0.89244845417872142868,2.8645140200645915485,0.18629923845058546372,11,11,-0.015469931997358798981,0,0
1.6531793369290478761e-05,2.9999231209710814916,0.099161505996336718471,0.18631227300787558954,5.5165869363995243546,0.89244850658251084763,2.864513994027671373,0.18629934605334871889,12,12,-0.015416587702929973602,0,0
1.6531935420022017997e-05,2.9999221392933925756,0.099161567824866111986,0.18631267323229175337,5.5165872055002243002,0.89244857656701159776,2.8645140200648242512,0.18629945312574949789,13,13,-0.015363243408501148224,0,0
1.6532090850757727007e-05,2.9999210996384459982,0.099161631198250554942,0.18631311115158308289,5.5165874011218178907,0.89244863173478983231,2.8645139940274839674,0.18629956558197888206,14,14,-0.01530989818274974823,0,0
1.6532259993462851964e-05,2.9999200679508919443,0.099161696119191691801,0.18631358770023923044,5.5165876817261123577,0.89244870480727256368,2.8645140200650036633,0.18629967807573150074,15,15,-0.015256553888320922852,0,0
1.6532443217255086363e-05,2.9999189726731372296,0.099161762932684582861,0.18631410391732361465,5.516587890140765893,0.89244876341048851032,2.8645139940275412549,0.1862997965630019126,16,16,-0.015203209593892097473,0,0
1.6532640927253483743e-05,2.9999178799239327731,0.099161831630636618207,0.18631466094321974536,5.516588184788289162,0.89244884025519932713,2.8645140200648917528,0.1862999156785259125,17,17,-0.015149864368140697479,0,0
1.653285356733797583e-05,2.9999167177285892549,0.099161902583879080186,0.18631526002739412506,5.5165884085933747372,0.89244890299325840832,2.864513994027502175,0.18630004142356668129,18,18,-0.015096520073711872101,0,0
1.6533081619186773802e-05,2.9999155523526366274,0.099161975775209063033,0.18631590252567115096,5.5165887199443579547,0.89244898432637709274,2.8645140200651861839,0.18630016841689148177,19,19,-0.015043175779283046722,0,0
1.6533325605249088019e-05,2.9999143113723145682,0.099162051603238793307,0.18631658990859353842,5.5165889618671464234,0.89244905193388346376,2.8645139940273249834,0.18630030270854508467,20,20,-0.014989830553531646729,0,0
1.6533586087978488662e-05,2.9999130611692477189,0.099162130043597293549,0.18631732375924611733,5.5165892927266293455,0.89244913851071128175,2.8645140200653016471,0.18630043890461245315,21,21,-0.01493648625910282135,0,0
1.6533863673027490498e-05,2.999911728837433067,0.099162211524721141642,0.18631810578223789721,5.5165895556571840075,0.89244921176561153864,2.8645139940271651113,0.18630058310751418382,22,22,-0.014883141964673995972,0,0
1.6534159008686586675e-05,2.9999103808442035835,0.099162296016953033195,0.1863189378021014031,5.5165899090059387078,0.89244930438861813649,2.8645140200655236917,0.18630072991399565518,23,23,-0.014829796738922595978,0,0
1.6534472789311665896e-05,2.9999089437656691892,0.099162383980759744029,0.18631982177292627512,5.516590196024041326,0.89244938412008700812,2.864513994027078958,0.18630088548271778182,24,24,-0.014776452444493770599,0,0
1.6534805754980709969e-05,2.9999074841216968323,0.099162475383244935712,0.18632075977736736738,5.5165905750488954951,0.89244948364713949651,2.8645140200656653562,0.18630104440466072058,25,25,-0.014723108150064945221,0,0
1.6535158695167290996e-05,2.9999059279337427775,0.099162570719205797576,0.18632175403696626947,5.5165908894577668775,0.89244957074421238374,2.8645139940271864276,0.18630121289873191603,26,26,-0.014669762924313545227,0,0
1.6535532448629325451e-05,2.9999043417390387489,0.099162669954657875482,0.18632280691180763688,5.5165912975845206034,0.89244967809744624176,2.864514020065813682,0.18630138555397776634,27,27,-0.014616418629884719849,0,0
1.6535927907344399418e-05,2.9999026509651387506,0.099162773621173178062,0.18632392091157196079,5.5165916429422692246,0.89244977351790222286,2.8645139940270176737,0.18630156865381658493,28,28,-0.01456307433545589447,0,0
1.6536346016647455494e-05,2.9999009221288766014,0.099162881686037790407,0.18632509869588637086,5.5165920838715347685,0.89244988969325678152,2.8645140200659873209,0.18630175678944707607,29,29,-0.014509729109704494476,0,0
1.6536787779446258923e-05,2.9998990800211240426,0.099162994720216418587,0.18632634308615889096,5.516592464029470122,0.89244999447354922406,2.8645139940268573575,0.1863019563134409029,30,30,-0.014456384815275669098,0,0
1.6537254256627563449e-05,2.9998971910983724953,0.099163112694759789068,0.1863276570666773102,5.5165929417729619999,0.89245012055064576462,2.8645140200662613239,0.18630216182350600729,31,31,-0.014403040520846843719,0,0
1.6537746571573785757e-05,2.9998951794694521666,0.099163236222825537625,0.18632904379728248978,5.5165933609131414528,0.89245023581628168952,2.8645139940267210221,0.18630237974629321185,32,32,-0.014349696226418018341,0,0
1.6538265910860066156e-05,2.9998931114862319447,0.099163365281978985144,0.18633050661527675307,5.5165938798343754357,0.89245037296932094861,2.8645140200666645569,0.18630260469080975327,33,33,-0.014296351000666618347,0,0
1.6538813529096159626e-05,2.9998909105264979225,0.099163500530600343086,0.1863320490490017467,5.5165943425122261345,0.89245049994616854061,2.8645139940266908241,0.18630284316312534232,34,34,-0.014243006706237792969,0,0
1.6539390749939795544e-05,2.9998886427897981655,0.099163641955719555865,0.18633367482062565545,5.5165949073690532245,0.89245064945560159675,2.8645140200668461894,0.1863030897887325843,35,35,-0.01418966241180896759,0,0
1.6539998971290961543e-05,2.9998862308695715129,0.099163790264265458396,0.18633538786069966942,5.5165954185594348047,0.89245078948220391002,2.8645139940267387857,0.18630335115887700081,36,36,-0.014136317186057567596,0,0
1.654063966665034107e-05,2.9998837407614109551,0.09916394545590706544,0.18633719231190240539,5.5165960345532072395,0.89245095274765007254,2.864514020067073119,0.18630362192117896902,37,37,-0.014082972891628742218,0,0
1.6541314390696588277e-05,2.9998810942162625892,0.099164108289724162137,0.18633909254465813587,5.5165965996974737351,0.8924511072882959084,2.8645139940264905398,0.18630390875837227194,38,38,-0.01402962859719991684,0,0
1.6542024781022074712e-05,2.9998783569686113815,0.099164278781600348478,0.18634109316192570827,5.5165972725255834064,0.89245128584256994131,2.8645140200676131315,0.1863042063463793141,39,39,-0.013976283371448516846,0,0
1.6542772564127504117e-05,2.9998754498644646382,0.099164457746588496878,0.18634319901597165559,5.5165978975878164903,0.89245145650203894228,2.8645139940264612299,0.18630452146624432164,40,40,-0.013922939077019691467,0,0
1.6543559557571139946e-05,2.9998724383145307648,0.099164645220685826432,0.18634541521430161848,5.5165986334965637639,0.89245165202592013909,2.8645140200681145082,0.18630484882899059351,41,41,-0.013869594782590866089,0,0
1.6544387676419079845e-05,2.9998692421909254335,0.099164842079209017389,0.18634774713769139409,5.5165993250227085554,0.89245184056541670969,2.8645139940266237666,0.18630519532144632078,42,42,-0.013816249556839466095,0,0
1.6545258935848330197e-05,2.9998659265127809448,0.099165048382441167707,0.18635020044736988476,5.5166001308711178908,0.89245205490448353824,2.864514020068566591,0.18630555569711876318,43,43,-0.013762905262410640717,0,0
1.6546175458095539165e-05,2.9998624101024384814,0.099165265070674857295,0.18635278110442307642,5.5166008960516865756,0.89245226325874082995,2.8645139940263972811,0.18630593695685221389,44,44,-0.013709560967981815338,0,0
1.6547139475558875389e-05,2.9998587575123978333,0.099165492233175403514,0.18635549537834875111,5.5166017793815660397,0.8924524984419460738,2.8645140200695218269,0.18630633390478970601,45,45,-0.013656215742230415344,0,0
1.6548153338292785565e-05,2.9998548864334177999,0.099165730880203917241,0.18635834986796109836,5.5166026261237517403,0.89245272873850012285,2.8645139940264350287,0.18630675366469684473,46,46,-0.013602871447801589966,0,0
1.6549219517658699674e-05,2.9998508608675917841,0.099165981135217601272,0.18636135151145058475,5.5166035952281768928,0.89245298699732378278,2.8645140200699694688,0.18630719110044510756,47,47,-0.013549527153372764587,0,0
1.6550340614418634081e-05,2.9998465972843879612,0.099166244084070112597,0.186364507608929586,5.5166045322357728509,0.8924532415777225447,2.8645139940266552969,0.18630765346844979646,48,48,-0.013496181927621364594,0,0
1.6551519362990308978e-05,2.999842159044570522,0.099166519889979140578,0.18636782583414515657,5.5166055962457765105,0.89245352536882338601,2.8645140200706644684,0.18630813570221191333,49,49,-0.013442837633192539215,0,0
1.6552758640198218456e-05,2.9998374612964155972,0.099166809720579091048,0.186371314258820725,5.516606633099800483,0.89245380681097663533,2.8645139940264150447,0.18630864520165535403,50,50,-0.013389493338763713837,0,0
1.6554061470194746244e-05,2.9998325666598670836,0.099167113785095656331,0.18637498136618449451,5.5166078020744588883,0.8924541188404164771,2.8645140200719509949,0.186309176980696517,51,51,-0.013336148113012313843,0,0
1.6555431033933720996e-05,2.9998273888528235176,0.099167433339621594013,0.18637883607727787072,5.5166089493310801473,0.89245442998447133132,2.864513994026655741,0.18630973859467178655,52,52,-0.013282803818583488464,0,0
1.6556870674825780848e-05,2.9998219896426006059,0.099167768646331144744,0.18638288776647846112,5.5166102343506429051,0.89245477323350652643,2.8645140200729288793,0.18631032515003700945,53,53,-0.013229459524154663086,0,0
1.6558383909006340581e-05,2.9998162811980315645,0.099168121057193039936,0.18638714628996316813,5.5166115036453051701,0.892455117209699611,2.8645139940269253032,0.18631094437042711176,54,54,-0.013176114298403263092,0,0
1.6559974431800861976e-05,2.9998103243121199135,0.099168490894840574668,0.18639162200342251907,5.5166129169252364761,0.89245549496479503748,2.8645140200741083802,0.18631159146810469251,55,55,-0.013122770003974437714,0,0
1.6561646128866891215e-05,2.9998040294717314147,0.099168879615344041056,0.18639632579288487046,5.5166143210840230537,0.89245587522390068536,2.8645139940271482359,0.18631227434942454479,56,56,-0.013069425709545612335,0,0
1.6563403083552813465e-05,2.9997974563613905019,0.099169287610147580092,0.18640126909483753503,5.5166158760938808214,0.89245629110875890344,2.8645140200755747628,0.18631298834703216571,57,57,-0.013016080483794212341,0,0
1.6565249589002156987e-05,2.999790513641176215,0.099169716448377673301,0.18640646392963855504,5.516617429261270189,0.89245671145612404107,2.8645139940276518331,0.18631374156576435697,58,58,-0.012962736189365386963,0,0
1.6567190156498327945e-05,2.9997832597381863806,0.099170166599541795249,0.18641192292428124255,5.5166191408556493059,0.89245716946711806106,2.864514020077452372,0.18631452947483781446,59,59,-0.012909391894936561584,0,0
1.6569229528628593389e-05,2.9997756013261525077,0.09917063975570135359,0.1864176593486411293,5.5166208586320575336,0.89245763409984324444,2.8645139940282504654,0.18631536039492599399,60,60,-0.012856047600507736206,0,0
1.6571372688717131433e-05,2.9997675954111784336,0.099171136474607402,0.18642368714114287975,5.5166227431967103101,0.89245813864526368775,2.8645140200796599395,0.1863162299496012031,61,61,-0.012802702374756336212,0,0
1.6573624875156391654e-05,2.9997591465038939695,0.099171658582191957176,0.1864300209481131454,5.5166246427927552176,0.89245865219349329589,2.8645139940291679537,0.18631714669458426803,62,62,-0.012749358080327510834,0,0
1.6575991592041498877e-05,2.9997503100087601347,0.099172206735669399258,0.18643667615263265214,5.5166267184049697647,0.89245920813666057558,2.8645140200821783694,0.18631810642746221562,63,63,-0.012696013785898685455,0,0
1.6578478624788019452e-05,2.9997409880800258719,0.099172782906834192063,0.18644366891729069469,5.5166288188088907773,0.89245977570883217034,2.864513994030239985,0.18631911796003719495,64,64,-0.012642668560147285461,0,0
1.6581092052092700047e-05,2.9997312343201594231,0.099173387864811959891,0.18645101621653115131,5.5166311054152608051,0.89246038841587826962,2.8645140200851142431,0.18632017728568719961,65,65,-0.012589324265718460083,0,0
1.6583838262969106096e-05,2.9997209483137714514,0.099174023740481676015,0.18645873588313077729,5.5166334275802224596,0.892461015648882805,2.8645139940318888883,0.18632129349550757835,66,66,-0.012535979971289634705,0,0
1.6586723970172728091e-05,2.9997101816410234321,0.099174691428558656159,0.18646684664437515599,5.5166359471909469647,0.89246169104116945814,2.864514020088678059,0.18632246280265035709,67,67,-0.012482634745538234711,0,0
1.6589756228799765121e-05,2.9996988310806944611,0.099175393233653069691,0.18647536817261167741,5.5166385142383518314,0.8924623841553012138,2.8645139940337069895,0.18632369460319084253,68,68,-0.012429290451109409332,0,0
1.659294245132904427e-05,2.9996869459479307274,0.099176130191194047936,0.18648432112562066121,5.5166412911447624268,0.89246312876762645683,2.8645140200929830598,0.18632498535647315507,69,69,-0.012375946156680583954,0,0
1.6596290427944370512e-05,2.9996744199562828115,0.099176904795577669471,0.18649372720162385453,5.5166441285922767079,0.89246389462775055357,2.8645139940361028508,0.18632634479180829046,70,70,-0.01232260093092918396,0,0
1.6599808343361693402e-05,2.9996612998868834588,0.099177718239683562707,0.18650360918424729872,5.5166471896024074084,0.89246471567202967368,2.8645140200979475331,0.18632776964399891395,71,71,-0.012269256636500358582,0,0
1.6603504799052127763e-05,2.9996474761017175581,0.09917857322547443677,0.18651399100239801632,5.5166503256143606393,0.89246556185477365908,2.8645139940392434497,0.18632927000676713369,72,72,-0.012215912342071533203,0,0
1.6607388832040362553e-05,2.9996329925521316717,0.099179471121669277034,0.18652489778024788913,5.5166537003165894149,0.89246646729084355698,2.8645140201038343797,0.18633084292261647974,73,73,-0.012162567116320133209,0,0
1.6611469939223955951e-05,2.999617735932888607,0.099180414857401769102,0.18653635590242473308,5.5166571659782972503,0.89246740215869335699,2.8645139940432953196,0.18633249888404518346,74,74,-0.012109222821891307831,0,0
1.6615758098348337696e-05,2.9996017470375035963,0.099181405997633628746,0.18654839306948084454,5.5166608870318407654,0.89246840077221645249,2.8645140201110028677,0.18633423527697048905,75,75,-0.012055878527462482452,0,0
1.662026379463831438e-05,2.9995849085463102135,0.099182447720225344612,0.1865610383688796059,5.5166647166536222358,0.89246943355524721575,2.8645139940480421892,0.18633606303055078035,76,76,-0.012002533301711082458,0,0
1.6624998044176392243e-05,2.9995672577341552234,0.09918354180889404903,0.18657432233644780095,5.5166688201078279974,0.89247053504384066258,2.8645140201196541696,0.18633797991341854994,77,77,-0.01194918900728225708,0,0
1.6629972423084949399e-05,2.9995486728825890843,0.099184691714056014145,0.18658827703367553141,5.5166730515634112564,0.8924716759303407132,2.8645139940542865276,0.18633999733326933601,78,78,-0.011895844712853431702,0,0
1.6635199093558180716e-05,2.9995291873495975032,0.099185899462994206455,0.186602936115687984,5.5166775772089904351,0.89247289099809967716,2.8645140201298149307,0.18634211348490722915,79,79,-0.011842499487102031708,0,0
1.6640690835858133821e-05,2.9995086745944634643,0.099187168805036154962,0.18661833491541324204,5.516682252304954126,0.89247415123424966854,2.8645139940621833219,0.18634434030072832833,80,80,-0.011789155192673206329,0,0
1.6646461077276595154e-05,2.9994871636187641073,0.099188502038399697924,0.18663451051864693442,5.5166872440661114396,0.89247549169690942872,2.8645140201421486204,0.18634667644965718925,81,81,-0.011735810898244380951,0,0
1.6652523927235522055e-05,2.9994645225933775912,0.099189903240303287091,0.18665150185567966346,5.5166924089492628269,0.89247688369652689033,2.8645139940716104476,0.18634913443967460189,82,82,-0.011682465672492980957,0,0
1.6658894209483954317e-05,2.9994407756768239892,0.099191375010291626957,0.18666934978406557466,5.5166979153138653302,0.89247836259707258311,2.8645140201570233884,0.18635171346688350624,83,83,-0.011629121378064155579,0,0
1.6665587500623505314e-05,2.9994157852377636431,0.09919292178540664584,0.18668809718833839773,5.516703620926689311,0.89247990006349831038,2.8645139940835191439,0.18635442667098656155,84,84,-0.0115757770836353302,0,0
1.6672620165877014979e-05,2.9993895700567421159,0.099194546499905625336,0.18670778907113161349,5.5167096954171501721,0.89248153179943701119,2.8645140201744383468,0.18635727383370845334,85,85,-0.011522431857883930206,0,0
1.668000940139310553e-05,2.999361986131741542,0.099196253986089000243,0.18672847266164846469,5.516715997995670584,0.89248322985961836551,2.8645139940983952442,0.18636026878850589505,86,86,-0.011469087563455104828,0,0
1.66877732739582065e-05,2.9993330462745957377,0.099198047549778539667,0.18675019751581625749,5.5167226996979330522,0.89248503032431303339,2.8645140201957386417,0.18636341196730016323,87,87,-0.011415743269026279449,0,0
1.6695930767470874091e-05,2.9993025994871183038,0.099199932457501124872,0.18677301563421000452,5.5167296613193084198,0.89248690567640887039,2.8645139941165647102,0.18636671796570691839,88,88,-0.011362398974597454071,0,0
1.6704501827007362267e-05,2.999270651960402656,0.099201912427446498066,0.18679698157195595565,5.5167370554597088272,0.89248889241452489252,2.8645140202216747838,0.18637018793710058429,89,89,-0.011309053748846054077,0,0
1.6713507409896892936e-05,2.999237045009789604,0.09920399320335804294,0.18682215256683859517,5.5167447446528328214,0.89249096349164458442,2.8645139941390072025,0.18637383731480031135,90,90,-0.011255709454417228699,0,0
