"epsilon","mach_number","pressure","rad_temp","rho","rhoE","rhou","temperature","GlobalNodeId","PedigreeNodeId","Points:0","Points:1","Points:2"
1.6531075685652381173e-05,2.9999333009030437758,0.09916087601241453664,0.18631025091257435999,5.5165846292914002547,0.892447882892582256,2.8645140137832583171,0.18629824038551026644,1,1,-0.016003377735614776611,0,0
1.6531079344576368262e-05,2.9999326465210893744,0.099160916048554273439,0.18631026122187005489,5.5165847568098786979,0.8924479187590578233,2.8645140003089522018,0.18629831129693058545,2,2,-0.015965722501277923584,0,0
1.6531089018786375834e-05,2.999932012272762627,0.099160955877523354607,0.18631028847968186812,5.5165849255152661357,0.89244796275547289,2.8645140137832951766,0.18629838042821963984,3,3,-0.015928067266941070557,0,0
1.653110468763368881e-05,2.9999313624000700784,0.099160995630972692538,0.18631033262780818949,5.516585051999987499,0.8924479983372330949,2.8645140003089015757,0.18629845084343971129,4,4,-0.01589041389524936676,0,0
1.6531126338820943949e-05,2.9999307308715068565,0.099161035288178198122,0.18631039363156434718,5.5165852200833684904,0.8924480421599164659,2.8645140137833542404,0.18629851967302601956,5,5,-0.015852758660912513733,0,0
1.653115396883356777e-05,2.9999300818368941357,0.099161074986486755223,0.18631047148099813549,5.516585346378114707,0.89244807768450851171,2.8645140003088251923,0.18629858999105913808,6,6,-0.015815103426575660706,0,0
1.653118758238683345e-05,2.9999294493831909492,0.09916111469784352761,0.18631056618933178326,5.5165855146774536166,0.89244812155938779696,2.8645140137834332883,0.18629865891508101683,7,7,-0.015777448192238807678,0,0
1.6531227192884014163e-05,2.999928797562294136,0.099161154565642742331,0.18631067779425261599,5.5165856416153324915,0.89244815725143611385,2.8645140003087510294,0.18629872952981824108,8,8,-0.015739792957901954651,0,0
1.6531272821885981215e-05,2.9999281605748304713,0.099161194554797466028,0.18631080635641839027,5.5165858109600884873,0.89244820140214276005,2.8645140137834830263,0.1862987989404398248,9,9,-0.015702137723565101624,0,0
1.6531324499595530708e-05,2.9999275023691014397,0.099161234815103305174,0.18631095196082153587,5.5165859393684808509,0.89244823748465973434,2.8645140003087057323,0.18629887024293043107,10,10,-0.015664482489228248596,0,0
1.6531382264349079068e-05,2.999926857254736845,0.099161275304726473334,0.18631111471535644064,5.5165861105846110135,0.89244828213384119753,2.8645140137835443106,0.18629894053059989356,11,11,-0.015626827254891395569,0,0
1.6531446163126817435e-05,2.9999261890708721623,0.099161316180211733773,0.18631129475225630121,5.5165862412895885214,0.8924483188294765057,2.8645140003086821956,0.18629901291129241647,12,12,-0.015589172951877117157,0,0
1.6531516251066162386e-05,2.9999255322314875016,0.099161357393263580007,0.18631149222672158117,5.5165864152041121926,0.89244836420004480804,2.8645140137835580774,0.18629908446696627489,13,13,-0.01555151771754026413,0,0
1.6531592591997514442e-05,2.9999248504611069066,0.099161399107519726526,0.1863117073184287209,5.5165865490353214184,0.89244840173236672509,2.8645140003086653202,0.18629915831791435399,14,14,-0.015513863414525985718,0,0
1.6531675257979294572e-05,2.9999241782734569206,0.099161441268502903412,0.18631194023021921402,5.5165867264811598858,0.89244844804878264988,2.8645140137835696237,0.18629923153524738377,15,15,-0.01547620818018913269,0,0
1.6531764329859211947e-05,2.9999234792728151078,0.099161484047294079502,0.18631219118968003756,5.5165868642762880825,0.89244848664350395762,2.8645140003086413394,0.18629930725231480526,16,16,-0.015438552945852279663,0,0
1.6531859896830845575e-05,2.9999227880681407221,0.099161527383515302159,0.1863124604478931523,5.5165870460969630429,0.89244853413302427381,2.864514013783601154,0.18629938252987174319,17,17,-0.015400897711515426636,0,0
1.6531962057020465343e-05,2.9999220681380531772,0.099161571456024485971,0.1863127482810876534,5.5165871887064410473,0.89244857401926536156,2.8645140003086262404,0.18629946051491494408,18,18,-0.015363243408501148224,0,0
1.65320709170652401e-05,2.9999213541821103668,0.099161616198831584179,0.18631305498945002763,5.5165873757604630967,0.89244862291317472724,2.8645140137836433425,0.18629953825834638659,19,19,-0.015325588174164295197,0,0
1.6532186592725798332e-05,2.9999206095477060074,0.099161661798915209931,0.18631338089884857956,5.5165875240521202727,0.89244866432471781081,2.8645140003086058123,0.18629961892141413959,20,20,-0.015287932939827442169,0,0
1.6532309208486282922e-05,2.99991986902033414,0.099161708184962976675,0.18631372635970488982,5.5165877172177397725,0.89244871485959242907,2.8645140137836673233,0.18629969954567426882,21,21,-0.015250277705490589142,0,0
1.6532438898192946229e-05,2.999919095810542391,0.099161755552422861659,0.186314091748791405,5.5165878720816285963,0.89244875803615875132,2.8645140003085849401,0.18629978330723459545,22,22,-0.01521262340247631073,0,0
1.6532575804676427606e-05,2.99991832478504028,0.099161803824952571285,0.18631447746816515165,5.5165880722617623988,0.89244881045515833673,2.8645140137837317162,0.18629986723881863941,23,23,-0.015174968168139457703,0,0
1.6532720080416806396e-05,2.9999175190119284906,0.099161853206813130313,0.18631488394703951683,5.5165882346146268844,0.89244885564366227548,2.8645140003085391989,0.18629995453200731692,24,24,-0.015137312933802604675,0,0
1.6532871887188590099e-05,2.9999167134341964136,0.09916190361694342259,0.18631531164078166118,5.5165884427414120239,0.89244891019780892005,2.8645140137837876715,0.18630004221122306585,25,25,-0.015099657699465751648,0,0
1.6533031396752814827e-05,2.9999158709717819171,0.099161955268769266802,0.1863157610328601832,5.5165886135319492922,0.8924489576537119051,2.8645140003085045599,0.18630013348414126151,26,26,-0.015062003396451473236,0,0
1.6533198790525347203e-05,2.9999150266387983876,0.099162008076828067615,0.18631623263390778567,5.5165888305716883622,0.892449014603208024,2.8645140137838156491,0.18630022536744428319,27,27,-0.015024348162114620209,0,0
1.6533374260296733617e-05,2.9999141432012952357,0.099162062264069622541,0.18631672698374662778,5.5165890107853599034,0.8924490645918482512,2.864514000308470365,0.18630032108552443959,28,28,-0.014986692927777767181,0,0
1.6533558007924598516e-05,2.9999132557392287346,0.0991621177409538479,0.18631724465051863193,5.5165892377437515393,0.89244912420746569381,2.8645140137838578376,0.18630041764789589953,29,29,-0.014949037693440914154,0,0
1.6533750246082072551e-05,2.999912326858640732,0.099162174740334133038,0.18631778623279077189,5.5165894284079080023,0.89244917700543135997,2.8645140003084561542,0.18630051829633359484,30,30,-0.014911383390426635742,0,0
1.6533951197975181732e-05,2.9999113917000821417,0.09916223316891792372,0.18631835235875524037,5.5165896663350908469,0.89244923956990007685,2.8645140137839004701,0.18630062003375572055,31,31,-0.014873728156089782715,0,0
1.653416109812084041e-05,2.9999104127031395173,0.099162293269861895295,0.18631894368841761533,5.5165898685242646948,0.89244929546646400986,2.8645140003084330615,0.18630072612001655208,32,32,-0.014836072921752929688,0,0
1.6534380192090264672e-05,2.9999094250634317227,0.099162354946464803529,0.18631956091286985822,5.5165901185204893054,0.89244936127595442255,2.8645140137839688599,0.18630083355203935769,33,33,-0.01479841768741607666,0,0
1.6534608737317675348e-05,2.9999083910475614623,0.099162418452587830497,0.18632020475656407843,5.5165903333618615534,0.8924494205745587827,2.8645140003083913172,0.18630094560847068608,34,34,-0.014760763384401798248,0,0
1.6534847002870911332e-05,2.9999073459003939846,0.099162483688484667765,0.18632087597666185941,5.5165905965828745394,0.89244948994017458954,2.8645140137840181538,0.18630105928086657108,35,35,-0.014723108150064945221,0,0
1.6535095270292099608e-05,2.9999062517086638735,0.099162550919146399964,0.18632157536539722953,5.5165908252622468666,0.89244955295999905953,2.8645140003083313651,0.18630117786741495767,36,36,-0.014685452915728092194,0,0
1.6535353833396837302e-05,2.9999051437603614367,0.099162620042162280543,0.18632230374950570218,5.5165911029254406373,0.89244962620938872444,2.8645140137841065275,0.18630129835496780921,37,37,-0.014647797681391239166,0,0
1.6535622999148261912e-05,2.9999039839552428255,0.099162691334090211082,0.18632306199268061642,5.5165913466931089104,0.89244969328695811228,2.8645140003082865121,0.18630142406203098471,38,38,-0.014610143378376960754,0,0
1.65359030874862522e-05,2.9999028076180556113,0.099162764690252203081,0.18632385099508594339,5.5165916400833001632,0.89244977076594222964,2.8645140137841877959,0.18630155197144374069,39,39,-0.014572488144040107727,0,0
1.6536194432236535102e-05,2.9999015764540351014,0.099162840399240184674,0.18632467169591027112,5.5165919002604422161,0.89244984225683920975,2.8645140003082389946,0.18630168542284589184,40,40,-0.0145348329097032547,0,0
1.6536497380971562258e-05,2.9999003258178746911,0.099162918354530532605,0.18632552507296801236,5.5165922107367233451,0.89244992433118253139,2.8645140137842903805,0.18630182139580322986,41,41,-0.014497177675366401672,0,0
1.653681229595637138e-05,2.9998990172124275766,0.099162998857234396777,0.18632641214535580754,5.5165924887219981443,0.89245000061182255813,2.8645140003081883684,0.18630196325194536833,42,42,-0.014459522441029548645,0,0
1.653713955404301206e-05,2.9998976860152684054,0.099163081799422472806,0.18632733397314715784,5.5165928177242999908,0.89245008766905087327,2.8645140137843734252,0.18630210796833349129,43,43,-0.014421868138015270233,0,0
1.6537479547655089439e-05,2.9998962935184989576,0.099163167495244244898,0.18632829166015660305,5.516593115000994807,0.8924501691385929858,2.8645140003081550617,0.18630225892949206501,44,44,-0.014384212903678417206,0,0
1.6537832684717734908e-05,2.9998948751149496772,0.09916325583583454617,0.18632928635373313675,5.5165934640574789682,0.89245026158994888998,2.864514013784472013,0.18630241311080883437,45,45,-0.014346557669341564178,0,0
1.6538199389682956431e-05,2.9998933918773760254,0.099163347148915101381,0.18633031924763807097,5.5165937822007053981,0.89245034867226324948,2.8645140003081421831,0.18630257392063628852,46,46,-0.014308902435004711151,0,0
1.653858010349735304e-05,2.999891879205610401,0.099163441325195181286,0.18633139158194320095,5.5165941529353306194,0.89245044695474728957,2.8645140137845852557,0.18630273833358299007,47,47,-0.014271248131990432739,0,0
1.6538975284670592684e-05,2.9998902979439945327,0.099163538706530746092,0.18633250464602860164,5.5165944936198938464,0.89245054010052748961,2.8645140003081079882,0.18630290978281804914,48,48,-0.014233592897653579712,0,0
1.6539385409283269312e-05,2.9998886834908455867,0.099163639183735149962,0.18633365977859217555,5.5165948877604096268,0.89245064467907342376,2.8645140137846807349,0.18630308524309488472,49,49,-0.014195937663316726685,0,0
1.6539810972101032406e-05,2.9998869964520444853,0.099163743113419730579,0.18633485837077420899,5.5165952527693864482,0.89245074436810190033,2.8645140003080942215,0.18630326817348585866,50,50,-0.014158282428979873657,0,0
1.6540252486625181961e-05,2.9998852722154540906,0.099163850387054774949,0.1863361018662854085,5.5165956721560727161,0.89245085573788829336,2.8645140137848139616,0.18630345554986413315,51,51,-0.014120628125965595245,0,0
1.6540710486255173767e-05,2.999883471138219182,0.099163961376642587031,0.1863373917646654887,5.5165960633891515386,0.89245096248136390749,2.8645140003080529212,0.18630365085832525929,52,52,-0.014082972891628742218,0,0
1.6541185524384818633e-05,2.9998816285879135179,0.099164075974923701629,0.18633872962153757991,5.5165965099837439567,0.8924510811702559554,2.864514013784930313,0.18630385107692487567,53,53,-0.014045317657291889191,0,0
1.6541678175616131427e-05,2.9998797046618412843,0.099164194569975785964,0.18634011705200895226,5.5165969294671475254,0.89245119551336582475,2.8645140003079991864,0.18630405971998553749,54,54,-0.014007662422955036163,0,0
1.6542189035904166931e-05,2.9998777346971099433,0.099164317056443476717,0.18634155573105981585,5.5165974053627122586,0.89245132208453481493,2.8645140137850866324,0.18630427376885613788,55,55,-0.013970008119940757751,0,0
1.6542718723825458458e-05,2.9998756785194498065,0.099164443839202781605,0.18634304739709511844,5.5165978552588095241,0.89245144460912051443,2.8645140003079605506,0.18630449676736157705,56,56,-0.013932352885603904724,0,0
1.6543267880774797154e-05,2.9998735714242710237,0.099164574815500769467,0.18634459385247659213,5.5165983626898844605,0.89245157966379828895,2.8645140137852695972,0.18630472570135897525,57,57,-0.013894697651267051697,0,0
1.6543837172291719478e-05,2.9998713729534984829,0.099164710407769113276,0.18634619696723478399,5.5165988453081009624,0.89245171099123410396,2.8645140003079605506,0.1863049641455068739,58,58,-0.013857042416930198669,0,0
1.654442728831283154e-05,2.999869118348909236,0.09916485051659586214,0.18634785867975445228,5.5165993866616052088,0.89245185517166947253,2.8645140137854570028,0.1863052090914695258,59,59,-0.013819388113915920258,0,0
1.6545038944560092715e-05,2.9998667668554142018,0.099164995582787809902,0.18634958100065665554,5.5165999044695448461,0.8924519959659007462,2.8645140003079285762,0.18630546414617127349,60,60,-0.01378173287957906723,0,0
1.6545672882852561033e-05,2.9998643536484146388,0.099165145511065991291,0.18635136601364771236,5.5166004822968481847,0.89245214995854993401,2.8645140137856559548,0.18630572630846684024,61,61,-0.013744077645242214203,0,0
1.654632987256050142e-05,2.9998618376617791625,0.099165300761477684355,0.1863532158795824234,5.516601037932625573,0.89245230092937655186,2.8645140003079081481,0.18630599921907192718,62,62,-0.013706422410905361176,0,0
1.6547010710980729711e-05,2.9998592539909938459,0.099165461243717806239,0.18635513283748775248,5.5166016549617635789,0.89245246546823864264,2.8645140137858651208,0.18630627988550374496,63,63,-0.013668768107891082764,0,0
1.6547716224860892486e-05,2.9998565612438126138,0.099165627438007344918,0.18635711920881867232,5.5166022512468080308,0.89245262737478237014,2.8645140003078815027,0.18630657198390565554,64,64,-0.013631112873554229736,0,0
1.6548447270842936251e-05,2.9998537944213157225,0.099165799259914200192,0.18635917739866864062,5.5166029103959992597,0.89245280324501330416,2.8645140137860733986,0.18630687253203129239,65,65,-0.013593457639217376709,0,0
1.6549204737062214163e-05,2.9998509117891209996,0.0991659772108256371,0.18636130990023055953,5.5166035503490151726,0.89245297689944913522,2.8645140003078690683,0.18630718524319189733,66,66,-0.013555802404880523682,0,0
1.6549989543663925405e-05,2.999847948238206552,0.099166161213156286958,0.18636351929620667556,5.516604254741143798,0.89245316494122617357,2.8645140137863642771,0.18630750714708141369,67,67,-0.01351814810186624527,0,0
1.6550802644482124227e-05,2.9998448616751387519,0.099166351790504911334,0.18636580826348833617,5.5166049415927540522,0.89245335121274949053,2.8645140003079219149,0.18630784199602304363,68,68,-0.013480492867529392242,0,0
1.6551645027634316739e-05,2.999841686864104684,0.099166548873168960943,0.18636817957477910812,5.5166056945701198444,0.89245355232533940537,2.8645140137866733632,0.18630818683346381248,69,69,-0.013442837633192539215,0,0
1.6552517717285793278e-05,2.9998383813343374449,0.099166753008092065058,0.18637063610350723675,5.5166064317786585036,0.89245375214441802214,2.8645140003079467839,0.18630854545272126921,70,70,-0.013405182398855686188,0,0
1.6553421774327993374e-05,2.9998349797053505128,0.099166964134566271127,0.18637318082567708166,5.5166072369199419256,0.89245396729062986818,2.8645140137870144237,0.18630891491293788409,71,71,-0.013367528095841407776,0,0
1.6554358298233995796e-05,2.9998314391094615949,0.099167182824088512261,0.18637581682502951663,5.5166080281886245018,0.89245418165357603968,2.8645140003080054036,0.18630929905055484963,72,72,-0.013329872861504554749,0,0
1.6555328427826696122e-05,2.9998277940024502541,0.099167409026129679783,0.186378547295137309,5.5166088893259992432,0.89245441186443230652,2.86451401378738435,0.18630969494248467155,73,73,-0.013292217627167701721,0,0
1.6556333343231695407e-05,2.9998240010989403181,0.09916764333802735587,0.186381375544830169,5.5166097386207271214,0.89245464183825418125,2.8645140003080555857,0.18631010647055012974,74,74,-0.013254562392830848694,0,0
1.6557374266741751518e-05,2.999820094670301529,0.09916788572071615071,0.18638430500055067074,5.5166106598588902088,0.89245488821806273627,2.8645140137878106756,0.18631053073167549994,75,75,-0.013216908089816570282,0,0
1.6558452464873852852e-05,2.9998160309913228794,0.099168136798742936855,0.1863873392120614092,5.5166115714278491922,0.89245513494569606028,2.8645140003081523972,0.1863109716554784967,76,76,-0.013179252855479717255,0,0
1.6559569249336862005e-05,2.9998118441269125967,0.099168396545875364678,0.18639048185507961497,5.5166125571637101288,0.89245539867740919515,2.8645140137882765252,0.18631142636128986134,77,77,-0.013141597621142864227,0,0
1.6560725979199994652e-05,2.9998074898881066375,0.099168665615351009324,0.18639373673728507064,5.5166135355580685484,0.8924556633832866348,2.8645140003082603108,0.18631189882911883271,78,78,-0.0131039423868060112,0,0
1.6561924061971173801e-05,2.9998030021099029163,0.099168943995229269506,0.18639710780125279266,5.5166145905025514296,0.89245594573431552554,2.8645140137888036591,0.18631238620325632493,79,79,-0.013066287152469158173,0,0
1.6563164955884645565e-05,2.9997983361139777259,0.099169232369020851592,0.18640059913078133036,5.5166156405986788158,0.892456229730357542,2.8645140003084117453,0.18631289251688448738,80,80,-0.013028632849454879761,0,0
1.6564450171098067096e-05,2.9997935254801535443,0.099169530740648437206,0.18640421495414413733,5.5166167697996488783,0.892456532058745311,2.8645140137894240517,0.18631341494200118203,81,81,-0.012990977615118026733,0,0
1.6565781272107607595e-05,2.9997885250136095969,0.099169839825573119496,0.18640795965075973584,5.5166178968227148616,0.89245683675074038987,2.8645140003085618474,0.18631395756791679919,82,82,-0.012953322380781173706,0,0
1.6567159879072372407e-05,2.9997833680116166022,0.09917015964528523575,0.18641183775478345486,5.5166191056894922085,0.89245716051178003436,2.8645140137900497734,0.18631451759730563444,83,83,-0.012915667146444320679,0,0
1.6568587670365944088e-05,2.9997780087338101751,0.099170490948996506408,0.18641585396214191417,5.5166203152395558718,0.8924574874063069263,2.8645140003087625757,0.18631509917876643012,84,84,-0.012878012843430042267,0,0
1.6570066384037388879e-05,2.9997724801658463001,0.099170833777568745404,0.18642001313448880451,5.5166216095695777,0.89245783415967738783,2.8645140137908144951,0.18631569954881305184,85,85,-0.01284035760909318924,0,0
1.6571597820508836415e-05,2.9997667359905291207,0.099171188915899405325,0.18642432030662761666,5.5166229076483599414,0.89245818487139350061,2.8645140003090561187,0.1863163229187351777,86,86,-0.012802702374756336212,0,0
1.6573183844182989014e-05,2.9997608088506768631,0.099171556426165277665,0.18642878069085619397,5.5166242936551501685,0.89245855628873049792,2.8645140137916809131,0.18631696656228199926,87,87,-0.012765047140419483185,0,0
1.6574826386297036564e-05,2.9997546518189506237,0.099171937131011161926,0.18643339968480343583,5.5166256866953062854,0.89245893254826069718,2.8645140003093327863,0.18631763475706034083,88,88,-0.012727392837405204773,0,0
1.6576527446687337861e-05,2.9997482971617723813,0.099172331116021500419,0.18643818287618893481,5.5166271710391390215,0.89245933042135572322,2.8645140137926370372,0.1863183248176975837,89,89,-0.012689737603068351746,0,0
1.6578289096810719367e-05,2.9997416973057702272,0.099172739243804666764,0.18644313605110104937,5.5166286659361993827,0.89245973408377687885,2.8645140003096911663,0.18631904109202393482,90,90,-0.012652082368731498718,0,0
