"epsilon","mach_number","pressure","rad_temp","rho","rhoE","rhou","temperature","GlobalNodeId","PedigreeNodeId","Points:0","Points:1","Points:2"
1.6531003055381236359e-05,2.9999332877594020452,0.099160876077845613863,0.1863100462709256222,5.5165846025312204048,0.8924478768193661038,2.8645139949505464827,0.18629824141214543221,1,1,-0.016003377735614776611,0,0
1.653102562053933888e-05,2.9999316226533374596,0.099160980290872294263,0.18631010985015133974,5.5165850219236709506,0.89244798916110379405,2.8645140191423217324,0.18629842303896324007,2,2,-0.015903357416391372681,0,0
1.6531089758702648888e-05,2.9999299352763157955,0.099161083839932356865,0.18631029056445091996,5.5165853731956548955,0.89244808456694457721,2.8645139949504101473,0.18629860571879963693,3,3,-0.015803335234522819519,0,0
1.6531195476774755953e-05,2.9999282702047316285,0.099161188028631080948,0.18631058843225312138,5.5165857926011785395,0.89244819687057930224,2.864514019142449186,0.18629878729941681814,4,4,-0.015703314915299415588,0,0
1.6531343197583977031e-05,2.999926549318674418,0.099161293632249555841,0.18631100464320868304,5.5165861515963818817,0.89244829431696626187,2.8645139949503115595,0.18629897357838121064,5,5,-0.015603293664753437042,0,0
1.6531533753087695831e-05,2.9999248177486146361,0.09916140191987901642,0.18631154153899284753,5.5165865863095904231,0.89244841070547398232,2.8645140191426099463,0.18629916234284596421,6,6,-0.015503272414207458496,0,0
1.6531768391172397523e-05,2.9999229968322724815,0.09916151370016823563,0.18631220263238018608,5.5165869683204089569,0.89244851431396010621,2.8645139949502338439,0.18629935944890360644,7,7,-0.01540325116366147995,0,0
1.6532048777017490043e-05,2.9999211315961140656,0.099161630248482179883,0.18631299261096723185,5.5165874337828242346,0.89244863894826631512,2.8645140191428044574,0.18629956269461661611,8,8,-0.015303230844438076019,0,0
1.6532377008110572445e-05,2.9999191421730651008,0.099161752447888440454,0.18631391737931779495,5.5165878545521191967,0.89244875296017867061,2.8645139949501752241,0.18629977806658812312,9,9,-0.015203209593892097473,0,0
1.6532755623766235304e-05,2.9999170728282495979,0.099161881620763156486,0.18631498408557770063,5.5165883669591924132,0.89244889020277295977,2.8645140191430633614,0.18630000344521627231,10,10,-0.015103188343346118927,0,0
1.653318762851598448e-05,2.9999148418146899253,0.099162018766419585125,0.18631620118711872403,5.5165888432900382909,0.89244901914353191863,2.8645139949501485788,0.1863002450209612082,11,11,-0.015003167092800140381,0,0
1.6533676510102419315e-05,2.9999124919532951239,0.099162165296561605166,0.18631757850092009465,5.5165894202096428245,0.89244917372512244658,2.864514019143379997,0.18630050083074894962,12,12,-0.014903145842254161835,0,0
1.6534226271728050365e-05,2.9999099389034564744,0.099162322370962799334,0.18631912729403918294,5.5165899705986660706,0.89244932257487807892,2.8645139949501370324,0.18630077734642799814,13,13,-0.014803124591708183289,0,0
1.6534841459173194738e-05,2.9999072233067680671,0.099162491536204711018,0.1863208603595420676,5.5165906316257675712,0.89244949977066101443,2.8645140191438756005,0.18630107284129907019,14,14,-0.014703103341162204742,0,0
1.6535527202722050387e-05,2.999904257449655276,0.099162674160787903088,0.18632279213405120166,5.5165912769445633046,0.89244967414778464398,2.864513994950219189,0.1863013941532583595,15,15,-0.014603083021938800812,0,0
1.6536289254396251917e-05,2.9999010789797311283,0.099162871976650232564,0.18632493880195241664,5.5165920444153897506,0.89244987996986024914,2.8645140191444782296,0.18630173988046486167,16,16,-0.014503061771392822266,0,0
1.6537134040733141163e-05,2.9998975959364688748,0.099163086615154383274,0.18632731844324770809,5.5165928086657638474,0.89245008633422695521,2.8645139949503897192,0.18630211732178189599,17,17,-0.014403040520846843719,0,0
1.6538068711499573891e-05,2.9998938420493632684,0.099163320050849212972,0.18632995116978381955,5.5165937084603173801,0.892450327747534633,2.8645140191452544975,0.18630252550060777406,18,18,-0.014303019270300865173,0,0
1.6539101204889506032e-05,2.9998897201111875965,0.099163574239883006678,0.1863328593077047679,5.5165946196301538507,0.89245057363095670055,2.8645139949507036903,0.18630297228535319665,19,19,-0.014202998019754886627,0,0
1.6540240309498094388e-05,2.9998852588657936025,0.099163851465556923648,0.18633606757057225023,5.5165956820902648516,0.8924508588003763343,2.8645140191463265289,0.18630345724060110024,20,20,-0.014102976769208908081,0,0
1.6541495743948167257e-05,2.9998803546978232148,0.099164154080741501174,0.18633960328190360412,5.5165967731419698339,0.89245115307256828174,2.8645139949512725686,0.18630398893045294062,21,21,-0.014002955518662929535,0,0
1.6542878234378004617e-05,2.999875030117088226,0.099164484754845919068,0.18634349659132179444,5.5165980341383917818,0.89245149165009307612,2.8645140191478124514,0.18630456759627925245,22,22,-0.013902935199439525604,0,0
1.6544399611014891594e-05,2.9998691737363136767,0.099164846321940586238,0.1863477807440188927,5.5165993441643390582,0.89245184482960826511,2.8645139949522193668,0.18630520264599972902,23,23,-0.013802913948893547058,0,0
1.6546072903978325944e-05,2.9998628003575107392,0.099165241928869218846,0.1863524923475223527,5.5166008463507525406,0.89245224829176350578,2.8645140191498579263,0.18630589515786588617,24,24,-0.013702892698347568512,0,0
1.6547912459911786053e-05,2.9998557892076216369,0.099165674990882399231,0.18635767169647995956,5.5166024219366986969,0.89245267291285135247,2.864513994953663989,0.1863066555589239226,25,25,-0.013602871447801589966,0,0
1.6549934059545798093e-05,2.9998481456303469628,0.099166149240753509453,0.18636336309930257027,5.5166042162347723732,0.89245315496023747137,2.8645140191527205253,0.18630748595448279326,26,26,-0.01350285019725561142,0,0
1.6552155058197127357e-05,2.9998397375466416825,0.09916666879388261191,0.18636961526846687609,5.5166061130792325429,0.89245366600848741179,2.8645139949558964254,0.18630839799932494283,27,27,-0.013402828946709632874,0,0
1.6554594529295800661e-05,2.9998305587536848726,0.099167238098421803261,0.18637648171823628651,5.5166082604461177397,0.89245424304130049897,2.8645140191567444177,0.18630939505272001155,28,28,-0.013302807696163654327,0,0
1.6557273433388724956e-05,2.9998204635739353918,0.099167862111986443407,0.18638402123277081346,5.5166105452914075968,0.89245485847319960815,2.8645139949592159923,0.18631049024629070532,29,29,-0.013202787376940250397,0,0
1.6560214792737802696e-05,2.9998094317593593239,0.099168546153039882629,0.18639229834838363931,5.5166131188317812928,0.89245555015938360377,2.8645140191624385295,0.18631168846481444001,30,30,-0.013102766126394271851,0,0
1.6563443894451209239e-05,2.9997973012895728928,0.09916929619151289288,0.1864013839141803186,5.5166158717749675944,0.89245629152392058625,2.8645139949642155486,0.18631300461502173227,31,31,-0.013002744875848293304,0,0
1.6566988502337510396e-05,2.9997840348762885299,0.099170118601937806702,0.18641135567493008485,5.5166189592700414224,0.89245712147953948357,2.864514019170480541,0.18631444543277270176,32,32,-0.012902723625302314758,0,0
1.6570879100966710254e-05,2.9997694508658847568,0.099171020570573600872,0.18642229894177803073,5.5166222765328294386,0.89245801466331198259,2.8645139949717073335,0.18631602795760460189,33,33,-0.012802702374756336212,0,0
1.6575149152255223226e-05,2.9997534913347529972,0.099172009751059886362,0.18643430729484514186,5.5166259834750510649,0.89245901126881366228,2.8645140191819269404,0.18631776116737594484,34,34,-0.012702681124210357666,0,0
1.6579835388670878998e-05,2.9997359510464738364,0.099173094790953444932,0.18644748338481564875,5.5166299807287391133,0.89246008739041715607,2.8645139949828202219,0.18631966466392863024,35,35,-0.01260265987366437912,0,0
1.6584978123570148014e-05,2.9997167471235970382,0.099174284891031333489,0.18646193977787262064,5.5166344339663071494,0.89246128477093611409,2.8645140191981965927,0.18632175013686413934,36,36,-0.012502639554440975189,0,0
1.6590621603455478136e-05,2.9996956460025789859,0.099175590454540260565,0.18647779991269861077,5.5166392503275858417,0.89246258125563360242,2.8645139949992564077,0.18632404026644833195,37,37,-0.012402618303894996643,0,0
1.659681438294237745e-05,2.99967253466197592,0.099177022551670809825,0.1864951991143394272,5.5166446024452362451,0.89246402045923567403,2.8645140192213927044,0.1863265500188324153,38,38,-0.012302597053349018097,0,0
1.6603609748011972751e-05,2.9996471455099498193,0.099178593695312691758,0.18651428573539552414,5.5166504052796163649,0.89246558233090866885,2.8645139950234042026,0.18632930577320688803,39,39,-0.012202575802803039551,0,0
1.6611066168715527024e-05,2.9996193291410242487,0.099180317212762367229,0.18653522236990061067,5.5166568398673376805,0.89246731274549107038,2.8645140192546523217,0.1863323264516676403,40,40,-0.012102554552257061005,0,0
1.6619247807809589372e-05,2.999588777082215163,0.099182208152264333956,0.18655818721222469647,5.5166638305674462472,0.89246919418055647988,2.8645139950588665023,0.18633564287860887587,41,41,-0.012002533301711082458,0,0
1.662822506698549612e-05,2.999555296041270136,0.099184282564688641681,0.1865833755070371025,5.5166715685577836226,0.89247127523815805716,2.8645140193023173047,0.18633927874945349634,42,42,-0.011902512982487678528,0,0
1.663807519821298815e-05,2.9995185284257805947,0.099186558545806546849,0.18661100116464698906,5.5166799894957341266,0.89247354143506030244,2.8645139951108031795,0.18634327023155003444,43,43,-0.011802491731941699982,0,0
1.664888296250410381e-05,2.9994782280351111048,0.099189055431418649,0.18664129848852070714,5.5166892967907585899,0.89247604466258956268,2.8645140193708105159,0.18634764677723911208,44,44,-0.011702470481395721436,0,0
1.6660741364823880269e-05,2.9994339782538652628,0.099191794981086114924,0.18667452409133988844,5.5166994396843298532,0.89247877409129261483,2.8645139951867144568,0.18635245097693831084,45,45,-0.011602449230849742889,0,0
1.6673752448271802508e-05,2.9993854691262473722,0.099194800491143417243,0.18671095894720260433,5.5167106363340314701,0.89248178557824797696,2.8645140194693752278,0.18635771922354496533,46,46,-0.011502427980303764343,0,0
1.6688028177666051834e-05,2.9993322131086799232,0.099198098126567227362,0.18675091065837176596,5.5167228523164100196,0.89248507268736709808,2.8645139952974782993,0.18636350183024313898,47,47,-0.011402406729757785797,0,0
1.6703691396683218015e-05,2.9992738234507760886,0.099201715957381114697,0.18679471588492452261,5.5167363235665476395,0.89248869605571057306,2.86451401961134966,0.18636984355494007337,48,48,-0.011302385479211807251,0,0
1.6720876890329841504e-05,2.9992097273722042594,0.099205685446495314728,0.18684274301762698878,5.5167510353072550799,0.89249265453060200315,2.8645139954588523246,0.18637680399751888061,49,49,-0.01120236515998840332,0,0
1.6739732538181071166e-05,2.9991394456559512527,0.099210040416369354999,0.18689539504294513939,5.5167672448982179034,0.8924970145091472018,2.8645140198160423672,0.1863844379951739294,50,50,-0.011102343909442424774,0,0
1.6760420592093351312e-05,2.9990623030911809366,0.099214818702036716713,0.18695311268213407607,5.5167849611944967947,0.89250178119327550075,2.8645139956937968329,0.18639281631645912563,51,51,-0.011002322658896446228,0,0
1.6783119065414518761e-05,2.9989777091635660966,0.09922006105645495011,0.18701637775346319215,5.5168044673707754555,0.89250702791977098993,2.8645140201113878931,0.18640200594088809916,52,52,-0.010902301408350467682,0,0
1.6808023269672131095e-05,2.9988848655778044261,0.099225812979628971733,0.18708571684056804485,5.5168258007133896825,0.8925127675344558531,2.8645139960355900932,0.18641209107029588221,53,53,-0.010802280157804489136,0,0
1.6835347487718531676e-05,2.9987830479040451515,0.099232123573000541317,0.18716170521540434479,5.5168492754977318526,0.89251908173363103671,2.864514020537870298,0.18642315330919229099,54,54,-0.01070225890725851059,0,0
1.6865326821998926184e-05,2.9986713099611863598,0.099239047557588180859,0.18724497109888968427,5.5168749632190472454,0.89252599255875830764,2.8645139965324322162,0.1864352930177012313,55,55,-0.010602237656712532043,0,0
1.6898219209316863126e-05,2.9985487662487519955,0.099246644090055374798,0.18733620020595154188,5.5169032156176722737,0.89253359177465618757,2.8645140211539947828,0.18644860941280622102,56,56,-0.010502217337489128113,0,0
1.6934307643942002808e-05,2.9984142929328094773,0.099254978985230432609,0.18743614065667646429,5.5169341453540443609,0.89254191248605740938,2.8645139972542090767,0.18646322229173040164,57,57,-0.010402196086943149567,0,0
1.6973902603359053497e-05,2.9982668108572796406,0.099264123509275339896,0.18754560819673757321,5.516968149296516799,0.89255105858328154245,2.864514022044530428,0.18647925207865079233,58,58,-0.010302174836397171021,0,0
1.7017344722271855989e-05,2.9981049828294761284,0.099274156824816911504,0.18766549180521160944,5.5170053896463091547,0.89256107648208959926,2.8645139983022391839,0.18649684195276436394,59,59,-0.010202153585851192474,0,0
1.7065007712719430089e-05,2.9979274969632347947,0.099285164780009274588,0.18779675962684044821,5.5170463176272779293,0.89257208467407533892,2.864514023332132453,0.18651613787040122183,60,60,-0.010102132335305213928,0,0
1.7117301580393377993e-05,2.9977327599075769271,0.099297242598014479054,0.18794046530016794705,5.5170911550670567181,0.89258414559126775245,2.8645139998233499767,0.18653731113858149082,61,61,-0.010002111084759235382,0,0
1.7174676139329497532e-05,2.9975191802273650765,0.09931049368470541705,0.18809775460891231535,5.5171404186564831917,0.8925973953062017463,2.8645140251943823628,0.18656053844873249359,62,62,-0.0099020898342132568359,0,0
1.7237624880382407819e-05,2.9972848571555594788,0.099325032588513148535,0.1882698725171359222,5.5171944019949430427,0.89261191552286089923,2.8645140020301549377,0.18658602494448633946,63,63,-0.0098020695149898529053,0,0
1.7306689200877805267e-05,2.99702786366371976,0.099340983854274339526,0.18845817050115212798,5.517253700622206658,0.89262786348077782783,2.8645140278882736951,0.18661398431069550763,64,64,-0.0097020482644438743591,0,0
1.7382463057177922812e-05,2.9967459302461589843,0.099358485284553793582,0.1886641142224552703,5.5173186945361214484,0.89264534407383100412,2.8645140052308053491,0.18664466239370705591,65,65,-0.009602027013897895813,0,0
1.7465598053856745599e-05,2.9964367272720573432,0.099377686872866896617,0.18888929143425020607,5.5173900742418346965,0.89266454002403861079,2.8645140317858412971,0.18667831739834692129,66,66,-0.0095020057633519172668,0,0
1.7556809038747148437e-05,2.9960975432272136665,0.099398754403755160136,0.18913542014299758454,5.5174683237531052526,0.89268558412988086026,2.86451400987148741,0.18671524413025678002,67,67,-0.0094019845128059387207,0,0
1.7656880225144175209e-05,2.9957255658729140535,0.099421868505431401641,0.18940435689018450538,5.5175542479526802353,0.89270868978887096823,2.8645140374255340099,0.18675575436418934139,68,68,-0.0093019632622599601746,0,0
1.7766671919379187818e-05,2.9953175542781886875,0.099447228633276735232,0.18969810514540519364,5.5176484560909759836,0.89273402337706908583,2.8645140165981359814,0.18680020179156706095,69,69,-0.0092019420117139816284,0,0
1.7887127884162955748e-05,2.9948701182379533492,0.099475052290196958049,0.19001882364107308687,5.5177518908135327891,0.89276183521598317938,2.8645140455862785345,0.18684896263614331202,70,70,-0.0091019216924905776978,0,0
1.8019283426555013486e-05,2.9943793833268910198,0.099505579447044162356,0.1903688346019938582,5.5178653121725593778,0.89279233208475639039,2.8645140263457551377,0.18690246140611183057,71,71,-0.0090019004419445991516,0,0
1.816427425187672968e-05,2.9938412679541075434,0.099539071988785171596,0.19075063165832240042,5.5179898287501369936,0.8928258087464985282,2.86451405739505649,0.18696115184823897115,72,72,-0.0089018791913986206055,0,0
1.8323346185064397061e-05,2.9932511405597690413,0.099575818636036442233,0.19116688735120507259,5.5181263822034267719,0.89286252059465132103,2.8645140404672013723,0.18702554362316445302,73,73,-0.0088018579408526420593,0,0
1.8497865813826195019e-05,2.9926040936100655188,0.099616134686856455671,0.19162045997346857651,5.518276281000212613,0.89290281587740960578,2.8645140744816401934,0.18709618370685318633,74,74,-0.0087018366903066635132,0,0
1.8689332170085786182e-05,2.9918945919446273685,0.099660367516346590189,0.19211439960849316377,5.5184406855234433564,0.89294700847938068833,2.8645140609192889514,0.18717368413064006116,75,75,-0.008601815439760684967,0,0
1.8899389519616261829e-05,2.9911167429506910764,0.099708896697876012172,0.19265195306451218804,5.5186211450419611069,0.89299551101117269347,2.8645140992023150339,0.18725870395975213745,76,76,-0.0085017951205372810364,0,0
1.9129841394077856957e-05,2.9902639349598296725,0.099762140173010452338,0.19323656752619652877,5.5188190834076538138,0.89304870772691069547,2.8645140905312049817,0.18735197826677923993,77,77,-0.0084017738699913024902,0,0
1.9382665953806509616e-05,2.9893291027959882911,0.099820554852614137853,0.19387189258572043449,5.5190363400121089654,0.89310708868016619455,2.8645141349622011973,0.18745430084141409544,78,78,-0.0083017526194453239441,0,0
1.9660032836482486821e-05,2.9883043550261412236,0.099884643567660580388,0.19456178044970920404,5.5192746561186076804,0.89317112277688393007,2.8645141333910779657,0.18756655459802062946,79,79,-0.0082017313688993453979,0,0
1.9964321601820522847e-05,2.9871812340700851784,0.099954956270462913537,0.19531028397208272107,5.5195362207121938525,0.89324139324001095019,2.8645141866793930596,0.18768969519907452437,80,80,-0.0081017101183533668518,0,0
2.0298141951988207002e-05,2.9859503310498802797,0.10003209789867316404,0.19612165231386624598,5.5198231575175933372,0.89331847079538384548,2.8645141954028705555,0.18782478313496908662,81,81,-0.0080016888678073883057,0,0
2.0664355863511676904e-05,2.9846015397065164265,0.10011673032034887343,0.1970003239060049427,5.5201380768401362431,0.89340305073705927885,2.8645142614527170366,0.18797296847621725036,82,82,-0.0079016676172614097595,0,0
2.1066101839107687738e-05,2.9831236575944832801,0.10020958126931196752,0.19795091656657357038,5.5204835633347579815,0.89349582624074241899,2.8645142850863156703,0.18813552490714985366,83,83,-0.0078016468323767185211,0,0
2.1506821445113146911e-05,2.9815046332084511604,0.10031144720543797022,0.1989782145272795677,5.5208627351639476544,0.89359762738136183646,2.8645143695208807877,0.18831383585900665634,84,84,-0.007701625581830739975,0,0
2.1990288376313342418e-05,2.9797311523732030736,0.10042320351002725909,0.20008715232892390623,5.5212787325978149866,0.89370929456361902776,2.8645144147254897327,0.188509430829154917,85,85,-0.0076016047969460487366,0,0
2.2520640248469327713e-05,2.9777888782952257607,0.10054580846523111792,0.20128279548078872874,5.5217352860961401717,0.89383181991521942766,2.8645145256371629117,0.18872397318855610449,86,86,-0.0075015835464000701904,0,0
2.3102413398736199306e-05,2.9756620222600971282,0.10068031493388543418,0.20257031801246555558,5.5222362058380749517,0.89396622081638243973,2.8645146020128340325,0.18895929917477533033,87,87,-0.0074015622958540916443,0,0
2.374058093391418693e-05,2.9733335768634554519,0.10082787569979141662,0.20395497700950707132,5.5227859606743505694,0.89411368417820580312,2.8645147510358124343,0.18921740771224776489,88,88,-0.0073015415109694004059,0,0
2.4440594350364978324e-05,2.9707848706262538485,0.10098975689803654787,0.20544208447695974651,5.5233891687063945142,0.89427544004075765205,2.8645148723982329919,0.18950050253013120405,89,89,-0.0072015202604234218597,0,0
2.520842901022895291e-05,2.9679957955240068301,0.10116734500143231834,0.20703697685097544046,5.5240511894693407058,0.8944529093495466876,2.864515076237081459,0.18981098438077814716,90,90,-0.0071014990098774433136,0,0
