"epsilon","mach_number","pressure","rad_temp","rho","rhoE","rhou","temperature","GlobalNodeId","PedigreeNodeId","Points:0","Points:1","Points:2"
1.6531030054229241591e-05,2.9999333046954674842,0.099160876052760263399,0.18631012234243687908,5.5165846391267505666,0.89244788504476346702,2.8645140203649854804,0.18629824012916429421,1,1,-0.016003377735614776611,0,0
1.653104240760068695e-05,2.9999320560291704574,0.099160952393947163208,0.1863101571490625441,5.5165848818224683114,0.89244795300636159396,2.8645139937274479713,0.18629837535899215761,2,2,-0.015930635854601860046,0,0
1.6531076910896859124e-05,2.9999308485669642366,0.09916102826988279495,0.18631025436479375923,5.5165852037345954884,0.89244803725409871387,2.8645140203650933941,0.18629850703953124147,3,3,-0.01585789211094379425,0,0
1.653113350224156086e-05,2.9999296070774748024,0.099161104154436491287,0.18631041381499696685,5.5165854447911373271,0.89244810475162472674,2.8645139937273396136,0.1862986414667912316,4,4,-0.015785150229930877686,0,0
1.6531212235084410885e-05,2.9999283940021532757,0.09916118036647084133,0.1863106356497902516,5.5165857680049130707,0.89244818932815528356,2.8645140203652097455,0.18629877373478831437,5,5,-0.015712408348917961121,0,0
1.6531313280702562493e-05,2.9999271338340194326,0.099161257396847501955,0.18631092035108631766,5.5165860133657833586,0.89244825796402671436,2.8645139937272281472,0.18629891016937416559,6,6,-0.015639664605259895325,0,0
1.6531436924295722418e-05,2.9999258894491505067,0.099161335537463549117,0.18631126872157927066,5.5165863437884130605,0.89244834446172893738,2.8645140203653625122,0.18629904581721049017,7,7,-0.01556692272424697876,0,0
1.6531583568750927678e-05,2.9999245849248206142,0.099161415304855185515,0.18631168189533636736,5.5165865993564286995,0.89244841582693401616,2.8645139937271046904,0.18629918704922521222,8,8,-0.015494179911911487579,0,0
1.6531753731932910897e-05,2.9999232834392235425,0.099161496972171372932,0.18631216133014258385,5.5165869429170912852,0.89244850584366175461,2.8645140203655126143,0.1862993288791252311,9,9,-0.015421437099575996399,0,0
1.6531948051689827851e-05,2.9999219085163177922,0.099161581090147568607,0.18631270882157791036,5.5165872146793928366,0.89244858155143069744,2.8645139937270123198,0.18629947773786348364,10,10,-0.015348694287240505219,0,0
1.6532167284329573947e-05,2.9999205235049211105,0.099161667921331561604,0.18631332649869200568,5.5165875774532020515,0.89244867672392225177,2.8645140203656715983,0.18629962862048426997,11,11,-0.015275951474905014038,0,0
1.6532412310870274122e-05,2.999919051237675216,0.099161758059211319027,0.18631401684157575249,5.5165878716047593855,0.89244875844306315038,2.8645139937269084029,0.18629978803295843548,12,12,-0.015203209593892097473,0,0
1.6532684136718745746e-05,2.9999175551007835061,0.099161851763990754849,0.18631478268040943536,5.5165882599372491057,0.89244886048046478955,2.8645140203658403522,0.18629995096614343497,13,13,-0.015130466781556606293,0,0
1.6532983899195112423e-05,2.9999159570943851882,0.099161949680656794048,0.18631562721660877013,5.5165885830065395368,0.89244894996918877617,2.8645139937268258024,0.18630012401636730779,14,14,-0.015057723969221115112,0,0
1.6533312868455039911e-05,2.999914320504283971,0.099162052075607409751,0.18631655402536023702,5.5165890036407887465,0.89244906068732265947,2.8645140203660472977,0.18630030218527121599,15,15,-0.014984981156885623932,0,0
1.6533672456343337837e-05,2.9999125663509200734,0.099162159654446468959,0.18631756708049215798,5.5165893626192303856,0.89244915982815853361,2.8645139937267369845,0.18630049217553212859,16,16,-0.014912238344550132751,0,0
1.6534064218627372129e-05,2.9999107576743573311,0.099162272698773812341,0.18631867076068270306,5.5165898228287577609,0.89244928118529698313,2.8645140203662915468,0.18630068901535695725,17,17,-0.014839496463537216187,0,0
1.6534489865260610671e-05,2.9999088143591623457,0.099162391984481679241,0.18631986987827825475,5.5165902253075573825,0.89244939202189188521,2.8645139937266663743,0.18630089953074024933,18,18,-0.014766753651201725006,0,0
1.6534951264021236286e-05,2.9999067990442127574,0.099162517818005585513,0.18632116968943285285,5.5165907330371428685,0.89244952615672223928,2.8645140203665708789,0.1863011187933412971,19,19,-0.014694010838866233826,0,0
1.6535450452293866814e-05,2.9999046303099445865,0.099162651055945447154,0.18632257592717144101,5.5165911873532351706,0.8924496509331796279,2.8645139937265846619,0.18630135377074508174,20,20,-0.014621268026530742645,0,0
1.6535989642235317677e-05,2.9999023702249822954,0.099162792040050670717,0.18632409481579573218,5.5165917513710835962,0.8924498002057399404,2.8645140203668746359,0.18630159959642636491,21,21,-0.014548525214195251465,0,0
1.6536571234211651339e-05,2.9998999358822833194,0.099162941718982808292,0.1863257331085691193,5.5165922667660618472,0.89244994140934064131,2.8645139937265566843,0.1863018633994702189,22,22,-0.0144757833331823349,0,0
1.6537197823643047165e-05,2.9998973885943605033,0.099163100481321000967,0.18632749810680587776,5.5165928968298283408,0.89245010844569228059,2.8645140203672876389,0.18630214039535891724,23,23,-0.014403040520846843719,0,0
1.6537872216264414563e-05,2.9998946437650357844,0.099163269380274490783,0.18632939770263867718,5.5165934836233248006,0.8924502688536990469,2.8645139937264914032,0.18630243789658601505,24,24,-0.014330297708511352539,0,0
1.653859743683381325e-05,2.999891761744324814,0.099163448864050207643,0.18633144040329627233,5.5165941906631514868,0.89245045659520938486,2.8645140203677943447,0.18630275122304412738,25,25,-0.014257554896175861359,0,0
1.653937674641888799e-05,2.9998886560225042075,0.099163640104293043764,0.18633363537950628497,5.5165948604466077398,0.89245063932685364527,2.8645139937264927354,0.18630308789501254241,26,26,-0.014184812083840370178,0,0
1.6540213653188901819e-05,2.9998853857566745162,0.099163843623120279114,0.18633599249556215272,5.5165956567684917289,0.8924508510849686882,2.8645140203683867597,0.18630344336182599885,27,27,-0.014112070202827453613,0,0
1.6541111931966689149e-05,2.9998818622728444794,0.099164060726140257351,0.18633852236401418634,5.5165964226200907561,0.89245105965937798764,2.8645139937265375885,0.18630382537877696048,28,28,-0.014039327390491962433,0,0
1.654207563736385318e-05,2.999878143275906961,0.099164292025451100665,0.18634123638223160091,5.5165973221343129751,0.89245129917703325262,2.8645140203691079606,0.18630422955280739883,29,29,-0.013966584578156471252,0,0
1.6543109125879679308e-05,2.9998741376458188945,0.099164538978073951681,0.18634414679414559868,5.5165981988608514541,0.89245153757830897323,2.8645139937266663743,0.18630466390483105266,30,30,-0.013893841765820980072,0,0
1.6544217071683083492e-05,2.9998699013423331117,0.099164802304245486253,0.18634726673412851938,5.5165992173386140252,0.89245180909899857191,2.8645140203700139025,0.18630512423121364796,31,31,-0.013821098953485488892,0,0
1.6545404491586497792e-05,2.9998653404813433454,0.099165083632092795862,0.18635061029667485122,5.5166002217482228431,0.89245208184960489461,2.8645139937268675467,0.18630561885303975611,32,32,-0.013748357072472572327,0,0
1.6546676763827674006e-05,2.9998605089456469308,0.099165383810565818634,0.18635419258854871161,5.5166013771118267428,0.89245239019545885562,2.8645140203711392246,0.18630614379213938925,33,33,-0.013675614260137081146,0,0
1.6548039656299120013e-05,2.9998553097268616519,0.09916570466120208649,0.18635802980742482982,5.5166025283229354059,0.89245270243933227938,2.8645139937271797415,0.18630670770890461752,34,34,-0.013602871447801589966,0,0
1.6549499348738580832e-05,2.9998497942537731831,0.09916604718504724858,0.18636213930339926015,5.5166038409746924742,0.89245305309960898388,2.8645140203725354411,0.18630730689158911395,35,35,-0.013530128635466098785,0,0
1.6551062464653920468e-05,2.9998438619850795739,0.099166413422359017682,0.1863665396677638697,5.5166051607666908296,0.89245341069647843302,2.8645139937276997699,0.18630795038429523447,36,36,-0.013457385823130607605,0,0
1.655273609739426409e-05,2.9998375614664540834,0.09916680455288737206,0.18637125080513550213,5.5166066539624782905,0.89245380992810430243,2.8645140203742687213,0.18630863478832543345,37,37,-0.01338464394211769104,0,0
1.655452784627749145e-05,2.9998307881585999368,0.099167222864421797346,0.18637629403370717385,5.5166081671742990267,0.8924542195607418904,2.8645139937284862519,0.18630936958202204412,38,38,-0.01331190112978219986,0,0
1.6556445847085645589e-05,2.9998235872351921572,0.099167669745738026843,0.18638169216942915285,5.5166098674492953791,0.89245467450279147847,2.8645140203764443143,0.18631015173286941122,39,39,-0.013239158317446708679,0,0
1.6558498812978568985e-05,2.9998158496295741493,0.09916814776495505579,0.1863874696392686936,5.5166116024333744505,0.89245514379917201264,2.86451399372958182,0.18631099121097965954,40,40,-0.013166415505111217499,0,0
1.6560696070038685728e-05,2.999807616585186576,0.099168658554506003422,0.18639365257907664075,5.5166135400870306427,0.89245566260333264452,2.8645140203791772393,0.18631188541068791076,41,41,-0.013093672692775726318,0,0
1.6563047603641257787e-05,2.9997987739048044276,0.099169205000218405011,0.18640026896159783698,5.5166155292275051991,0.89245620027599281698,2.8645139937311405731,0.18631284485944879514,42,42,-0.013020930811762809753,0,0
1.6565564099766434957e-05,2.9997893582641959043,0.099169789017735154868,0.18640734870987857308,5.5166177388767705381,0.89245679225540053281,2.8645140203826828795,0.1863138674477384793,43,43,-0.012948187999427318573,0,0
1.6568256997595670848e-05,2.9997792496472146517,0.099170413853254049674,0.18641492384200389343,5.5166200191804897202,0.89245740826044017702,2.8645139937333090607,0.18631496433519389999,44,44,-0.012875445187091827393,0,0
1.6571138537414708994e-05,2.9997684794337557967,0.099171081750826423074,0.18642302860214821081,5.5166225403915030157,0.89245808405961124521,2.8645140203871037876,0.18631613398760815681,45,45,-0.012802702374756336212,0,0
1.6574221820318729622e-05,2.9997569210031822529,0.099171796365725067846,0.18643169962427560971,5.5166251541634743205,0.89245878977836823331,2.8645139937363031102,0.18631738828223118332,46,46,-0.012729959562420845032,0,0
1.6577520863650693328e-05,2.9997445996069749263,0.099172560322092720431,0.18644097608320869819,5.516628032173587215,0.89245956156738892595,2.8645140203927930145,0.18631872635071289324,47,47,-0.012657217681407928467,0,0
1.6581050668826806366e-05,2.9997313811228640823,0.099173377739911347528,0.18645089987981494639,5.5166310277883274793,0.89246037001395317478,2.8645139937404016095,0.18632016088550909516,48,48,-0.012584474869072437286,0,0
1.6584827285392448779e-05,2.9997172837222021435,0.099174251682519962148,0.1864615158147699403,5.5166343143307203789,0.8924612517103380771,2.864514020400008576,0.18632169178765697892,49,49,-0.012511732056736946106,0,0
1.6588867888126889014e-05,2.9997021647559867219,0.09917518679820452876,0.18647287179806831814,5.5166377471146894607,0.89246217776884462225,2.8645139937459256352,0.18632333267635606266,50,50,-0.012438989244401454926,0,0
1.6593190850956578299e-05,2.9996860342273077293,0.099176186657098458488,0.18648501904848757693,5.5166415013620442309,0.89246318529128099151,2.8645140204092336411,0.18632508434044733892,51,51,-0.012366246432065963745,0,0
1.6597815834666374566e-05,2.9996687397890902105,0.09917725650848570329,0.1864980123306058668,5.5166454346021929211,0.8924642459871930944,2.8645139937533921071,0.18632696145337065974,52,52,-0.01229350455105304718,0,0
1.6602763872089914995e-05,2.9996502820318573512,0.099178400506626268607,0.18651191018333210248,5.5166497242450942551,0.89246539754563825042,2.8645140204210717272,0.18632896582723440515,53,53,-0.012220761738717556,0,0
1.6608057467947119466e-05,2.9996304975716570063,0.099179624584926684427,0.18652677518798616019,5.5166542303423398153,0.89246661235599700213,2.8645139937634036542,0.18633111333549701172,54,54,-0.012148018926382064819,0,0
1.6613720696937043294e-05,2.999609376163304475,0.099180933570265208954,0.1865426742296471263,5.5166591328234035885,0.89246792878352809719,2.8645140204363315206,0.18633340696853084584,55,55,-0.012075276114046573639,0,0
1.6619779317441350683e-05,2.9995867418559334361,0.099182334175214714733,0.18655967880025189909,5.5166642946124255786,0.89246931999185774576,2.8645139937768488991,0.1863358639664971228,56,56,-0.012002533301711082458,0,0
1.6626260884380280887e-05,2.999562571940932898,0.099183832000537291984,0.18657786529692590993,5.5166698985375424158,0.89247082512422470923,2.8645140204560539665,0.18633848867539568039,57,57,-0.011929791420698165894,0,0
1.6633194878773293327e-05,2.9995366761517079368,0.099185434646671441494,0.18659731536447882183,5.5166758107962037272,0.89247241822648792908,2.8645139937947581288,0.18634129989271111527,58,58,-0.011857048608362674713,0,0
1.6640612837487638828e-05,2.9995090174546845674,0.099187148604151439968,0.18661811623531521231,5.5166822175495093816,0.89247413933637198546,2.8645140204815260354,0.18634430352302061573,59,59,-0.011784305796027183533,0,0
1.6648548500934928811e-05,2.99947938926850588,0.099188982485614266005,0.18664036111614593083,5.5166889887265071479,0.89247596350546853916,2.8645139938185817385,0.18634752013915889535,60,60,-0.011711562983691692352,0,0
1.66570379621492796e-05,2.9994477381059319043,0.099190943803977985049,0.18666414957452143186,5.5166963143178833207,0.8924779317992738159,2.864514020514438819,0.18635095743651367006,61,61,-0.011638820171356201172,0,0
1.6666119835227349188e-05,2.999413838785875086,0.099193042326309710521,0.18668958797502485658,5.516704068509026726,0.89248002041643614834,2.8645139938501817944,0.18635463801264998129,62,62,-0.011566078290343284607,0,0
1.667583542652454129e-05,2.9993776189332543858,0.099195286739677188126,0.18671678991791598734,5.5167124456887250972,0.89248227160276116798,2.8645140205571437697,0.18635857161951743799,63,63,-0.011493335478007793427,0,0
1.6686228926822003663e-05,2.9993388321556215814,0.09919768812827835236,0.18674587673051185055,5.5167213248983468787,0.89248466286555505622,2.864513993892064736,0.18636278316467902449,64,64,-0.011420592665672302246,0,0
1.6697347607831343144e-05,2.9992973844072476908,0.099200256526999694429,0.18677697796385858697,5.5167309055755771041,0.89248723780551730833,2.8645140206124919402,0.18636728476071776073,65,65,-0.011347849853336811066,0,0
1.670924204150191824e-05,2.9992530050991956792,0.099203004523333318532,0.18681023194541673815,5.5167410723048009302,0.89248997542357400015,2.8645139939474759672,0.18637210395153894216,66,66,-0.011275107041001319885,0,0
1.6721966325484062256e-05,2.9992055753338608959,0.099205943698723542123,0.18684578634006612785,5.5167520303167245643,0.89249292087503950821,2.8645140206843606734,0.18637725555831161084,67,67,-0.01120236515998840332,0,0
1.6735578333481403954e-05,2.9991547969147323016,0.099209088356930208441,0.18688379877056843226,5.5167636705247753426,0.89249605486606697902,2.8645139940206933993,0.18638277013458570686,68,68,-0.01112962234765291214,0,0
1.6750139973847996862e-05,2.9991005224563780374,0.099212451853384620026,0.18692443744952419449,5.5167762048045334566,0.89249942433516016305,2.8645140207778068131,0.1863886656082446025,69,69,-0.011056879535317420959,0,0
1.6765717475452235357e-05,2.9990424222568874413,0.099216050451795725906,0.18696788187434659756,5.5167895312978947331,0.89250301193579129055,2.8645139941173196618,0.18639497596955667547,70,70,-0.010984136722981929779,0,0
1.6782381684183797342e-05,2.9989803162880455112,0.09921989954184413929,0.18701432353698549393,5.5168038695004231187,0.89250686665124767671,2.8645140208994339659,0.18640172270865726367,71,71,-0.010911393910646438599,0,0
1.680020838943789945e-05,2.9989138388899490018,0.099224017625970287182,0.18706396670026306794,5.5168191258113470354,0.89251097335926776744,2.8645139942446737891,0.18640894374106198317,72,72,-0.010838652029633522034,0,0
1.6819278663994433038e-05,2.9988427726443602772,0.099228422425948648034,0.18711702919220160601,5.516835528462610938,0.89251538338730662669,2.8645140210578063922,0.18641666464038295081,73,73,-0.010765909217298030853,0,0
1.683967923696516139e-05,2.9987667108475526412,0.09923313500193131631,0.18717374327047855975,5.5168529932882641731,0.89252008415424122223,2.8645139944123640952,0.18642492780625696813,74,74,-0.010693166404962539673,0,0
1.6861502883291859414e-05,2.9986853932692039137,0.099238175748600221393,0.18723435650796832475,5.5168717585340472098,0.89252512967427255486,2.8645140212641360122,0.18643376349209478393,75,75,-0.010620423592627048492,0,0
1.6884848849837723377e-05,2.9985983663544768518,0.099243568648773025642,0.1872991327516898008,5.5168917508166623875,0.89253051026997709538,2.8645139946330471226,0.18644321922094070354,76,76,-0.010547680780291557312,0,0
1.6909823301647644784e-05,2.9985053208693166482,0.099249337160046330331,0.18736835310560595591,5.5169132198575017156,0.89253628303428578228,2.8645140215331612588,0.18645333060826771443,77,77,-0.010474938899278640747,0,0
1.6936539808823138098e-05,2.9984057497783505042,0.099255508605471484684,0.18744231698965835298,5.5169361045984661729,0.8925424416083170831,2.8645139949232745202,0.18646415103181490647,78,78,-0.010402196086943149567,0,0
1.6965119857711721899e-05,2.998299287776372779,0.09926210995181626584,0.1875213432248473977,5.5169606679098377455,0.89254904661227285612,2.8645140218841138591,0.18647572224959096943,79,79,-0.010329453274607658386,0,0
1.6995693407299016268e-05,2.9981853667821880549,0.099269172340118283504,0.18760577119665100554,5.516986862823926252,0.89255609548042535994,2.8645139953046734327,0.18648810433051055124,80,80,-0.010256710462272167206,0,0
1.7028399474663472317e-05,2.9980635573546541295,0.099276726756971703236,0.18769596204579727661,5.5170149672756698678,0.89256365287354511029,2.8645140223421514669,0.18650134606796070491,81,81,-0.010183967649936676025,0,0
1.7063386770868864422e-05,2.9979332217369898395,0.099284808707997801447,0.18779229993839843815,5.5170449504076701785,0.89257172056203371024,2.8645139958057046492,0.18651551517878309228,82,82,-0.01011122576892375946,0,0
1.7100814371355502652e-05,2.9977938571539870516,0.099293453783893481646,0.18789519336346516276,5.5170771074118043487,0.89258036783451499829,2.8645140229401131471,0.18653066851300195705,83,83,-0.01003848295658826828,0,0
1.7140852442742741734e-05,2.9976447463333637522,0.099302702480246904382,0.1880050765092804721,5.5171114258535371988,0.89258960141880372419,2.8645139964635131236,0.18654688252965392903,84,84,-0.0099657401442527770996,0,0
1.7183683010351416499e-05,2.9974853026798817801,0.099312595660379379692,0.18812241066540846823,5.5171482206911202084,0.8925994959033433096,2.8645140237210480194,0.18656422330349112237,85,85,-0.0098929973319172859192,0,0
1.722950078895357006e-05,2.997314718192074956,0.099323179525328042505,0.18824768570099423282,5.5171875005591850538,0.89261006368409478995,2.8645139973268296529,0.1865827772872046264,86,86,-0.0098202545195817947388,0,0
1.7278514061358950444e-05,2.997132310507710784,0.099334500975913953003,0.18838142156458950738,5.5172296030551368773,0.89262138541820024162,2.8645140247412617107,0.18660262111616099379,87,87,-0.0097475126385688781738,0,0
1.7330945628005622899e-05,2.9969371681244756367,0.099346612737172768082,0.18852416985498990365,5.5172745609117139765,0.89263347998284570117,2.8645139984595338056,0.18662385266781697513,88,88,-0.0096747698262333869934,0,0
1.7387033812525443311e-05,2.9967284993105183233,0.099359568622498090074,0.18867651540643334829,5.5173227376533784394,0.89264643498350859652,2.8645140260742794069,0.18664656066580226357,89,89,-0.009602027013897895813,0,0
1.7447033547185575417e-05,2.9965052745265916556,0.09937342881737554201,0.18883907793607565551,5.5173741935790392432,0.89266027670885605971,2.8645139999451623147,0.18667085604873265292,90,90,-0.0095292842015624046326,0,0
