"epsilon","mach_number","pressure","rad_temp","rho","rhoE","rhou","temperature","GlobalNodeId","PedigreeNodeId","Points:0","Points:1","Points:2"
1.653098153139765213e-05,2.9999332833935299369,0.099160876139143691588,0.1863099856252357911,5.5165845958372674573,0.89244787516331558486,2.8645139898462552708,0.18629824175336770486,1,1,-0.016003377735614776611,0,0
1.6531017703710867474e-05,2.9999311675170101665,0.099161008717320239803,0.18631008754383046599,5.5165851342395475498,0.89244801930982353699,2.8645140242470827907,0.18629847265209900642,2,2,-0.015875350683927536011,0,0
1.6531121647026983363e-05,2.9999290139856742421,0.099161140717505993902,0.18631038041210706835,5.5165855772904359711,0.89244813971822822829,2.8645139898460203476,0.18629870568496559313,3,3,-0.01574732363224029541,0,0
1.653129373861629732e-05,2.9999268753029233459,0.099161274672934188179,0.18631086529034146526,5.5165861209696505085,0.89244828521948427191,2.8645140242473225989,0.1862989389929121109,4,4,-0.015619297511875629425,0,0
1.6531535463572266925e-05,2.99992462917256697,0.099161412375594060187,0.18631154635831284616,5.5165865853402422658,0.89244841130725205414,2.8645139898458666927,0.18629918201922229803,5,5,-0.015491270460188388824,0,0
1.6531849406599593151e-05,2.9999223286314462555,0.099161556325162866776,0.18631243089191348861,5.5165871662625765026,0.89244856677916273302,2.8645140242476854198,0.18629943284580754992,6,6,-0.015363243408501148224,0,0
1.6532239283815018666e-05,2.9999198493960070877,0.099161708436167964043,0.18631352935233941315,5.5165876842543095648,0.89244870725041292037,2.8645139898457481209,0.18629970113082683358,7,7,-0.015235216356813907623,0,0
1.6532709970260401299e-05,2.9999172427859339685,0.099161871314216720741,0.18631485546302356537,5.5165883355745242156,0.89244888162485680461,2.8645140242481721415,0.18629998514171935975,8,8,-0.015107189305126667023,0,0
1.6533267567995262379e-05,2.9999143802447258977,0.099162047137996617296,0.18631642640069268069,5.5165889417204558853,0.89244904578073891432,2.864513989845733466,0.18630029499986175412,9,9,-0.014979162253439426422,0,0
1.6533919470460397883e-05,2.9999113090549145433,0.09916223876280451377,0.18631826297566611572,5.5165896998835908249,0.89244924887193932683,2.8645140242488471571,0.18630062941028049939,10,10,-0.014851135201752185822,0,0
1.6534674469160773509e-05,2.9999078939577712433,0.099162448781987738711,0.18632038993107291613,5.5165904330990978011,0.89244944719010266265,2.864513989845852926,0.18630099922146342584,11,11,-0.014723108150064945221,0,0
1.6535542858358132887e-05,2.9999041756606730225,0.099162680457781440801,0.18632283623607401313,5.5165913400749380102,0.89244969029643927971,2.8645140242497926231,0.18630140385172175299,12,12,-0.01459508109837770462,0,0
1.6536536585044201596e-05,2.9999000094787127146,0.099162936966926865101,0.18632563550616249026,5.5165922460102123637,0.89244993506451808507,2.8645139898462095296,0.18630185517251932059,13,13,-0.01446705404669046402,0,0
1.6537669399928528241e-05,2.9998954266316824047,0.099163222159033365122,0.18632882642570816611,5.5165933517997887137,0.89245023164338044275,2.8645140242512119322,0.1863023536317911788,14,14,-0.014339026995003223419,0,0
1.6538957058015330703e-05,2.9998902698253853139,0.099163539991398361173,0.18633245330941808349,5.5165944855379906997,0.89245053768536597438,2.8645139898469405004,0.18630291246969235552,15,15,-0.014210999943315982819,0,0
1.6540417524631636386e-05,2.9998845573304597778,0.09916389511546916391,0.18633656667816991814,5.5165958511040509293,0.89245090414193628536,2.8645140242533377872,0.18630353353975334652,16,16,-0.014082972891628742218,0,0
1.6542071236907440621e-05,2.9998781154135416571,0.099164292506325135701,0.18634122398979383051,5.5165972803672920222,0.89245128968099440847,2.8645139898482794294,0.18630423186678465863,17,17,-0.013954945839941501617,0,0
1.6543941376827636175e-05,2.999870945181919879,0.099164737878364439538,0.18634649040086972982,5.5165989811625317785,0.89245174631770562979,2.8645140242565858557,0.18630501116764677794,18,18,-0.013826918788254261017,0,0
1.6546054207453430581e-05,2.9998628517640386626,0.099165237515531162726,0.1863524397044343528,5.5166007902134177598,0.89245223402603035545,2.8645139898506459808,0.18630588876220513517,19,19,-0.013698891736567020416,0,0
1.654843942887143185e-05,2.9998538138929125019,0.0991657985180883772,0.18635915532071181677,5.5166029205116569045,0.89245280620798250748,2.8645140242615387827,0.18630687079670624207,20,20,-0.013570864684879779816,0,0
1.6551130607292387708e-05,2.9998436097207124007,0.099166428840544371126,0.18636673149061744326,5.5166052149767823565,0.89245342450454645533,2.8645139898547409274,0.18630797752026856395,21,21,-0.013442837633192539215,0,0
1.6554165634538654827e-05,2.9998321890993975281,0.099167137372317304411,0.18637527455075858507,5.5166078932575830507,0.89245414410814083439,2.8645140242692290755,0.18630921821546714279,22,22,-0.013314810581505298615,0,0
1.6557587273462872566e-05,2.9998192958950129494,0.099167934191459916615,0.18638490444520761091,5.5166108061495107151,0.89245492877880983063,2.864513989861698029,0.18631061685490737934,23,23,-0.013186783529818058014,0,0
1.6561443747535772831e-05,2.9998048429044565921,0.099168830483301440015,0.18639575635508409679,5.5166141818438063638,0.89245583600648092926,2.8645140242811750753,0.18631218674577190719,24,24,-0.013058756478130817413,0,0
1.6565789432646634753e-05,2.9997885305112430565,0.099169839019496164312,0.18640798260755728211,5.5166178811266046722,0.89245683223914518134,2.864513989873371802,0.18631395658361910028,25,25,-0.012930729426443576813,0,0
1.6570685610765120319e-05,2.9997702241518102717,0.099170973920385194211,0.186421754748468671,5.5166221431090152194,0.89245797790373104785,2.864514024299881445,0.18631594482047786343,26,26,-0.012802702374756336212,0,0
1.6576201346494790287e-05,2.9997495691240647631,0.099172251370737429799,0.18643726594747683789,5.516626841237256329,0.89245924285421807109,2.8645139898926910149,0.18631818613631198622,27,27,-0.012674675323069095612,0,0
1.6582414448106823287e-05,2.9997263704838070808,0.099173689233717013392,0.18645473362407877227,5.5166322285479889587,0.89246069126286975415,2.8645140243293383264,0.18632070554387794581,28,28,-0.012546648271381855011,0,0
1.6589412577688806481e-05,2.9997002037787341422,0.099175308017003513394,0.18647440247178470596,5.516638194522856864,0.89246229729755066629,2.8645139899245020132,0.18632354530253128488,29,29,-0.01241862121969461441,0,0
1.6597294474613236148e-05,2.9996707972145970622,0.099177130348954117833,0.18649654777406515782,5.516645009928106802,0.89246412989888423972,2.8645140243758846488,0.1863267387776123829,30,30,-0.01229059416800737381,0,0
1.6606171361348735441e-05,2.9996376380373366288,0.099179182211815972159,0.18652147919889033867,5.5166525845542375706,0.89246616869789552329,2.8645139899765048597,0.18633033782672703271,31,31,-0.012162567116320133209,0,0
1.661616849929667373e-05,2.9996003567564364367,0.099181492294109024899,0.18654954497190778806,5.5166612117161752948,0.8924684886993765609,2.8645140244497140358,0.18633438643725741546,32,32,-0.012034540064632892609,0,0
1.6627426969057229074e-05,2.9995583288357878793,0.099184093511413176647,0.18658113662578040826,5.516670826926637794,0.89247107645321854807,2.8645139900612690553,0.18633894862208549847,33,33,-0.011906513012945652008,0,0
1.6640105647381373178e-05,2.9995110606960526667,0.09918702225336988032,0.18661669423323851147,5.5166817521564279758,0.89247401467042086765,2.8645140245671658619,0.18634408186619605408,34,34,-0.011778485961258411407,0,0
1.6654383461851390283e-05,2.9994577862951206093,0.099190320217396266145,0.18665671233303829379,5.516693955501456692,0.89247729866436842361,2.8645139901989793429,0.18634986557759816717,35,35,-0.011650458909571170807,0,0
1.6670461901510968034e-05,2.9993978545484565323,0.099194033574250300989,0.186701746464647933,5.5167077953311931537,0.89248102093364400922,2.8645140247544591539,0.18635637438336646876,36,36,-0.011522431857883930206,0,0
1.6688567872717030441e-05,2.9993303202814152186,0.099198215146095447547,0.18675242053297883005,5.516723281021899794,0.89248518789307829113,2.8645139904221812444,0.18636370719251596495,37,37,-0.011394405737519264221,0,0
1.6708956886162977729e-05,2.9992543326018186178,0.099202923521661517947,0.1868094349272786947,5.5167408171596994393,0.89248990446747322736,2.8645140250535154891,0.18637196039373443712,38,38,-0.011266378685832023621,0,0
1.6731916674586843035e-05,2.9991687195817742229,0.099208225617837028643,0.18687357562704393077,5.5167604654293143085,0.89249519113683473126,2.8645139907833430115,0.18638125760097828953,39,39,-0.01113835163414478302,0,0
1.6757771237077204982e-05,2.9990723769861755699,0.099214195784376540965,0.18694572422599300965,5.5167826890835280906,0.89250116859742767428,2.8645140255317147471,0.18639172282021798654,40,40,-0.011010324582457542419,0,0
1.6786885422274387014e-05,2.9989638458856222591,0.099220918798068116762,0.18702686911603352837,5.5168076161009267366,0.8925078751517120379,2.8645139913668256071,0.18640351096624191429,41,41,-0.010882297530770301819,0,0
1.6819670059170545849e-05,2.9988417009815817593,0.099228489008249570746,0.18711811776539441499,5.5168357841918176376,0.89251545150879396662,2.8645140262972641487,0.18641678108479561859,42,42,-0.010754270479083061218,0,0
1.6856587763801804218e-05,2.9987041201577313565,0.099237013825057437955,0.18722071033632797787,5.5168674053658186551,0.89252395855696575744,2.864513992308593604,0.18643172775152272447,43,43,-0.010626243427395820618,0,0
1.6898159446900639025e-05,2.9985492714402961489,0.099246612971369607692,0.18733603457194775155,5.516903111819862815,0.8925335623957003639,2.8645140275238856198,0.18644855445996910692,44,44,-0.010498216375708580017,0,0
1.6944971670850214731e-05,2.9983748732536668058,0.099257422542481169025,0.18746564219054068223,5.5169432220934071509,0.8925443525381996368,2.8645139938271828584,0.18646750604199563428,45,45,-0.010370189324021339417,0,0
1.6997684901884972485e-05,2.9981785788051769082,0.099269594448231274209,0.18761126669855088256,5.5169884882780735325,0.89255652729227319409,2.8645140294904218869,0.18648884236254464897,46,46,-0.010242162272334098816,0,0
1.7057042831036246615e-05,2.9979575255129677913,0.099283301141542698587,0.18777484283564208067,5.5170393639852806089,0.89257021245234346996,2.8645139962740904238,0.18651287193679971788,47,47,-0.010114135220646858215,0,0
1.7123882836329416682e-05,2.9977087153004875475,0.099298735357414374958,0.18795852752223010662,5.5170967534363581919,0.89258564717853405845,2.8645140326448195189,0.18653992611093084264,48,48,-0.0099861081689596176147,0,0
1.7199147791318211259e-05,2.9974285512999703229,0.099316115633258095219,0.18816472246992521633,5.517161281527993566,0.89260300325283892242,2.8645140002145357272,0.18657039409671885566,49,49,-0.0098580811172723770142,0,0
1.7283899326177916845e-05,2.9971132121738293108,0.099335686480479495897,0.18839609825046413349,5.517234045513935925,0.8926225716463005444,2.8645140377064439718,0.18660469786582575824,50,50,-0.0097300540655851364136,0,0
1.7379332786106164478e-05,2.9967581737577368983,0.099357724851775963693,0.18865561988964796303,5.5173158875300138959,0.89264458243325484066,2.8645140065569161258,0.18664332887983328679,51,51,-0.009602027013897895813,0,0
1.7486794035945198644e-05,2.9963585750877346214,0.099382540917767964173,0.18894657365923131498,5.5174081497727360812,0.89266939228789954353,2.8645140458303783859,0.18668682398638833386,52,52,-0.0094739999622106552124,0,0
1.7607798405555657252e-05,2.9959087221232301168,0.099410485677306106855,0.18927259498416987293,5.5175119499432767611,0.89269730517469780828,2.8645140167608333925,0.1867358041948259384,53,53,-0.0093459729105234146118,0,0
1.7744051978778209981e-05,2.9954024426497003475,0.09944195255796126065,0.18963769695417873051,5.5176289410752543674,0.89272876108081300472,2.8645140588709887552,0.18679095193871156355,54,54,-0.0092179458588361740112,0,0
1.7897475582928217561e-05,2.9948325686125651934,0.099477386417175225897,0.19004629914117268652,5.5177605904839630568,0.89276415763127925374,2.8645140331706744341,0.18685305233802448899,55,55,-0.0090899188071489334106,0,0
1.8070231749575128686e-05,2.9941912764917302248,0.099517286243914759858,0.1905032559587911678,5.5179089457082550751,0.89280404044612926562,2.8645140798047612485,0.18692297228798554487,56,56,-0.0089618917554616928101,0,0
1.8264755081670017487e-05,2.9934695440928327237,0.099562215863958428153,0.19101388398222771126,5.5180759177150617845,0.89284892586736963604,2.8645140595504132719,0.18700170476252478413,57,57,-0.0088338647037744522095,0,0
1.8483786383030798337e-05,2.9926574723743297746,0.099612808093863136616,0.19158398715236896193,5.5182640548210333264,0.89289949343396546322,2.8645141134073912603,0.18709035030827148027,58,58,-0.0087058376520872116089,0,0
1.8730411082767210707e-05,2.9917437118134855289,0.099669777546289695103,0.19221987895470857288,5.5184758311120010177,0.89295640995564085074,2.8645141019399336102,0.18719016508600691551,59,59,-0.0085778106003999710083,0,0
1.9008102417253644803e-05,2.9907157610639365508,0.099733926680369011653,0.19292840016682538673,5.5187144307223379158,0.89302052473092863316,2.8645141673375271729,0.18730254549624042459,60,60,-0.0084497835487127304077,0,0
1.9320770023523596749e-05,2.9895593573039409563,0.099806161207197957586,0.1937169309565494324,5.5189830427011985492,0.89309269526263512784,2.8645141700251675054,0.18742908083184142698,61,61,-0.0083217564970254898071,0,0
1.967281453929804489e-05,2.988258746614773198,0.099887498597364177133,0.19459339566641900565,5.5192856586821568143,0.89317398601096520405,2.8645142538696743983,0.18757154194331862596,62,62,-0.0081937294453382492065,0,0
2.0069189013616567049e-05,2.98679603215528644,0.099979086717758361424,0.19556625889563722387,5.5196263757812245032,0.89326549611951733265,2.8645142793270701453,0.18773193959343717485,63,63,-0.008065702393651008606,0,0
2.0515467887149864271e-05,2.985151410956445428,0.10008221550323471993,0.1966445111742695373,5.5200102115311677764,0.89336856270625175647,2.8645143926598679585,0.18791251829221686243,64,64,-0.0079376753419637680054,0,0
2.1017924530600113329e-05,2.9833024735705264696,0.10019833961984524195,0.19783764297448386271,5.5204424168527124195,0.8934845910593541829,2.8645144546922369777,0.18811582170988927487,65,65,-0.0078096487559378147125,0,0
2.1583618300985165609e-05,2.981224402377613103,0.10032909418989452432,0.19915560570812984587,5.5209293132126191495,0.89361526373454536198,2.8645146151513785071,0.18834469307876419708,66,66,-0.0076816217042505741119,0,0
2.2220492328642434067e-05,2.9788892168933420734,0.10047632248084979734,0.20060875906464809004,5.5214776183008380528,0.89376237378897083197,2.8645147358471647614,0.188602349340471237,67,67,-0.0075535946525633335114,0,0
2.2937483237637880449e-05,2.9762659301647995669,0.1006420967986891013,0.20220780422811432397,5.5220953117719400183,0.89392804128763070359,2.8645149715751645481,0.18889238982692715951,68,68,-0.0074255676008760929108,0,0
2.3744644281742033538e-05,2.9733197357688561091,0.1008287524536246732,0.20396370348958905994,5.5227909770263012845,0.89411455027110953164,2.864515186210705,0.18921888119397803352,69,69,-0.0072975405491888523102,0,0
2.4653283387558722322e-05,2.9700121221849835607,0.10103891521297318767,0.20588758720050168161,5.523574703703033606,0.89432457469209847289,2.864515542037251894,0.18958637645379816661,70,70,-0.0071695134975016117096,0,0
2.5676117903679799784e-05,2.9663000015577503099,0.10127554310143273286,0.20799065015579643045,5.5244574499528065203,0.89456101995681103212,2.8645159068235690469,0.19000001317472692275,71,71,-0.007041486445814371109,0,0
2.6827447882417330429e-05,2.9621357881780836507,0.10154196213732456788,0.2102840399890801848,5.5254519921848332942,0.89482726083182451138,2.8645164540045282564,0.19046554532746803878,72,72,-0.0069134593941271305084,0,0
2.8123350054047152038e-05,2.9574664765929661314,0.1018419178900352301,0.21277874121610332314,5.5265723134818118822,0.89512698854926908698,2.8645170582613252996,0.19098945768885655649,73,73,-0.0067854323424398899078,0,0
2.9581894693206653771e-05,2.9522337010527182066,0.10217962161259877552,0.21548545881404385094,5.5278346141110814571,0.89546446386126155037,2.864517909733070411,0.19157901334539853555,74,74,-0.0066574052907526493073,0,0
3.1223387928607100031e-05,2.9463727832554131858,0.10255981389676163684,0.21841450585939187201,5.5292567333059947643,0.89584437083033863214,2.86451889489525513,0.19224238767421683582,75,75,-0.0065293782390654087067,0,0
3.3070642083451559277e-05,2.9398128068460591678,0.10298782374721261734,0.22157569944940536111,5.5308592378926526578,0.89627208897414989419,2.8645202289894062808,0.1929887346356374267,76,76,-0.0064013511873781681061,0,0
3.5149276983787466986e-05,2.9324756751144693823,0.1034696471201875384,0.22497826911086768464,5.5326648865518599507,0.89675355492201536123,2.8645218180260534346,0.19382834400500567607,77,77,-0.0062733241356909275055,0,0
3.7488055172288169787e-05,2.9242762607103531813,0.10401202191746597436,0.22863078093056457551,5.5346998187214060394,0.89729555847750785968,2.864523914979054009,0.19477272961299199605,78,78,-0.0061452970840036869049,0,0
4.0119254271581857832e-05,2.9151215432100840985,0.10462252459867225907,0.23254107998568704363,5.5369930725345026801,0.89790561319909367732,2.8645264574164470694,0.19583481344269804136,79,79,-0.0060172700323164463043,0,0
4.3079079642693175582e-05,2.9049109313094092499,0.10530966440279940222,0.23671625218567715621,5.5395779019685225109,0.89859228216104747311,2.8645297548489274675,0.19702903841963134712,80,80,-0.0058892429806292057037,0,0
4.6408120667137313462e-05,2.8935355908798792157,0.10608300142995098769,0.24116260565507768865,5.5424913615048323479,0.89936505799011368101,2.864533794635626851,0.1983715821398504553,81,81,-0.0057612159289419651031,0,0
5.0151853667532470958e-05,2.8808790858741852858,0.10695326339690605644,0.24588567022301396903,5.5457757860089476054,0.90023472497701229056,2.8645389703809405191,0.19988049506834582036,82,82,-0.0056331893429160118103,0,0
5.4361194392041109588e-05,2.866817058547092234,0.10793248825639666089,0.25089021271315697925,5.5494784556829150901,0.90121324773999478275,2.8645453460754013442,0.20157594422486219132,83,83,-0.0055051622912287712097,0,0
5.9093102250144113755e-05,2.8512183936016111119,0.10903416598816141614,0.25618026447023134473,5.5536532792640231904,0.90231417677876357697,2.8645534388351658883,0.20348037361666784784,84,84,-0.0053771352395415306091,0,0
6.441123785803707627e-05,2.8339454679235553947,0.11027340728009005222,0.26175915711970376698,5.5583605494969523519,0.9035525419026712024,2.8645634272096529571,0.20561877271747949769,85,85,-0.0052491081878542900085,0,0
7.0386673923213756605e-05,2.8148561009954353729,0.11166711029818429668,0.26762956180014135787,5.5636688729711121226,0.90494530756975799513,2.8645760061524225826,0.20801884766064213106,86,86,-0.005121081136167049408,0,0
7.7098657862629320857e-05,2.7938046375332623583,0.11323415284042476214,0.27379352716393917655,5.5696550135257627545,0.90651126090891775977,2.8645915191644784059,0.21071129819846251552,87,87,-0.0049930540844798088074,0,0
8.4635421602131575246e-05,2.7706449866487572464,0.11499557786451088115,0.28025251111319310349,5.5764061044592576621,0.90827151970459907293,2.8646109095294760571,0.21372997216317785041,88,88,-0.0048650270327925682068,0,0
9.3095030576271849848e-05,2.7452328112011117334,0.11697479723232576121,0.28700740162452381687,5.5840195431834098727,0.91024939223646805786,2.8646347458971579414,0.21711211330127577757,89,89,-0.0047369999811053276062,0,0
0.00010258625855092635211,2.7174299472599154903,0.11919777649523470575,0.29405852187917475016,5.5926054884321576566,0.9124709315520155295,2.8646643018948396708,0.2208984420078933808,90,90,-0.0046089729294180870056,0,0
