"epsilon","mach_number","pressure","rad_temp","rho","rhoE","rhou","temperature","GlobalNodeId","PedigreeNodeId","Points:0","Points:1","Points:2"
1.6530978071122125596e-05,2.999933301805974839,0.099160876263787098295,0.186309975875603967,5.5165846356290115793,0.89244788540731834203,2.8645140195454925625,0.1862982406437510563,1,1,-0.016003377735614776611,0,0
1.6531017195529412115e-05,2.9999310616703400711,0.099161014012884934887,0.18631008611198679459,5.5165851145456992199,0.89244801448662269827,2.8645139945477384735,0.18629848326620004895,2,2,-0.01587001606822013855,0,0
1.6531129802951022658e-05,2.9999288577671965328,0.099161151662600630075,0.18631040339199103628,5.5165856572284175385,0.89244816078087652045,2.8645140195456377796,0.1862987235484722115,3,3,-0.015736654400825500488,0,0
1.6531316402461713859e-05,2.9999265878852745537,0.09916129121597758167,0.18631092914678468175,5.5165861430191904802,0.89244829163976979736,2.8645139945476119081,0.18629896932847547775,4,4,-0.015603293664753437042,0,0
1.653157879623463574e-05,2.9999242760309878797,0.099161435516518320332,0.18631166844871718813,5.5165867105548134219,0.89244844456000504973,2.8645140195459126708,0.1862992212665697811,5,5,-0.015469931997358798981,0,0
1.6531920092797004317e-05,2.9999218192100678415,0.099161586615077332296,0.18631263004833920061,5.5165872393560011488,0.89244858693816342399,2.8645139945475341925,0.18629948728445774875,6,6,-0.015336570329964160919,0,0
1.6532344728043379657e-05,2.9999192401770771177,0.099161747432140220915,0.18631382643307678459,5.5165878683504221414,0.89244875634801323905,2.8645140195462812649,0.18629976817728940985,7,7,-0.015203209593892097473,0,0
1.6532858524429567285e-05,2.9999164323768114926,0.099161920238523340587,0.18631527399324857019,5.5165884778759526341,0.89244892040511081266,2.8645139945475879273,0.18630007225242739555,8,8,-0.015069847926497459412,0,0
1.6533468758204963905e-05,2.9999134145177319688,0.099162108204847249082,0.1863169932104550286,5.5165892077935474447,0.8924491169334354268,2.8645140195468554722,0.18630040074342166245,9,9,-0.01493648625910282135,0,0
1.65341842663373041e-05,2.999910073598945015,0.099162314000623960619,0.18631900895745856506,5.5165899399213138565,0.89244931394614035458,2.8645139945477837706,0.18630076265669556768,10,10,-0.014803124591708183289,0,0
1.6535015563377203145e-05,2.9999064212837729393,0.099162541232427306448,0.18632135082564474371,5.5165908157436129855,0.89244954970327206034,2.8645140195476859191,0.18630115998999130511,11,11,-0.014669762924313545227,0,0
1.6535975001180703469e-05,2.9999023349359035251,0.099162793166062163097,0.18632405357269185564,5.5165917192919318168,0.89244979281298653095,2.8645139945482314126,0.18630160279526436495,12,12,-0.014536402188241481781,0,0
1.6537076942177036693e-05,2.9998978157667304245,0.099163074055115346672,0.18632715760772150526,5.5165927944579626896,0.89245008218247134923,2.8645140195489640078,0.18630209420449070357,13,13,-0.014403040520846843719,0,0
1.6538337980455210577e-05,2.9998927277985880657,0.099163387991241108699,0.18633070961029302159,5.5165939283384064495,0.89245038724416680953,2.8645139945490991629,0.18630264571766091963,14,14,-0.014269678853452205658,0,0
1.6539777181905442369e-05,2.9998870577530629689,0.099163740125195978803,0.18633476320196992737,5.5165952681618000142,0.89245074780260014169,2.8645140195509339875,0.18630326203955532849,15,15,-0.014136317186057567596,0,0
1.6541416379197020656e-05,2.9998806518502250107,0.099164135650807297417,0.18633937977093639748,5.5165967051155586631,0.89245113439046053205,2.8645139945506921109,0.1863039566026942484,16,16,-0.014002955518662929535,0,0
1.6543280493551051614e-05,2.9998734773940953779,0.099164580921299538829,0.18634462937027773677,5.5165983908995439577,0.89245158801492752154,2.8645140195540061967,0.18630473621989682154,17,17,-0.013869594782590866089,0,0
1.6545397920819140248e-05,2.9998653573037330489,0.099165082573311233438,0.18635059179506174853,5.5166002220562386782,0.89245208064910830359,2.8645139945534388026,0.18630561685345997658,18,18,-0.013736233115196228027,0,0
1.6547800954797169023e-05,2.9998562333376255218,0.099165648542243356456,0.18635735776132197894,5.5166023561684127685,0.89245265488261249498,2.8645140195589267051,0.18630660808989718547,19,19,-0.013602871447801589966,0,0
1.6550526287317968057e-05,2.9998458982337852241,0.099166287333804600812,0.18636503029746048776,5.5166046967151958214,0.89245328455453887262,2.8645139945581861163,0.18630772916865617761,20,20,-0.013469509780406951904,0,0
1.6553615559360146132e-05,2.9998342604947336731,0.099167008943427212286,0.18637372627444867557,5.5166074089388654755,0.89245401431488824429,2.8645140195667488925,0.18630899328763533829,21,21,-0.013336148113012313843,0,0
1.6557116005151987972e-05,2.9998210739890818211,0.099167824284307412586,0.18638357819164211304,5.5166104052538154079,0.89245482040633128396,2.8645139945662583258,0.18631042390740723547,22,22,-0.013202787376940250397,0,0
1.6561081165263132374e-05,2.9998062041930069199,0.099168746017578357499,0.18639473614886228892,5.5166138608133001853,0.89245575014502120936,2.8645140195792935245,0.18631203889899236592,23,23,-0.013069425709545612335,0,0
1.6565571713623296432e-05,2.9997893550736320911,0.099169788147784182497,0.18640737012898958569,5.5166176995054758692,0.89245678285998653045,2.8645139945798270276,0.18631386714302497487,24,24,-0.012936064042150974274,0,0
1.6570656376800573775e-05,2.9997703366477401765,0.099170966772751598106,0.18642167252720906467,5.5166221092611715804,0.89245796930464660335,2.8645140195994658328,0.18631593253513292763,25,25,-0.012802702374756336212,0,0
1.6576412994118509792e-05,2.9997487889269049965,0.099172299859897061758,0.18643786105992984914,5.5166270286776022402,0.89245929276453128676,2.8645139946024738009,0.18631827090389807555,26,26,-0.012669340707361698151,0,0
1.6582929700041627256e-05,2.9997244506094444816,0.099173807927622842362,0.18645618199643651525,5.5166326621215846515,0.89246080841437946951,2.8645140196320784121,0.18632091389413799054,27,27,-0.012535979971289634705,0,0
1.6590306281923179114e-05,2.9996968798143384127,0.099175514019089805462,0.18647691385661668839,5.5166389670307607318,0.89246250460730480736,2.8645139946401600994,0.18632390623328473622,28,28,-0.012402618303894996643,0,0
1.6598655698618491617e-05,2.9996657236644304056,0.099177444330717456911,0.18650037152634560411,5.5166461688841668121,0.8924644421970276964,2.8645140196849898651,0.18632728951929697359,29,29,-0.012269256636500358582,0,0
1.6608105818694621225e-05,2.9996304354693630323,0.099179628404157005317,0.18652691094587325882,5.5166542492422498967,0.89246661602469756769,2.8645139947027264959,0.18633111987241018914,30,30,-0.01213589496910572052,0,0
1.6618801369068979203e-05,2.9995905448843713792,0.099182099722254682406,0.18655693433300116202,5.516663460677991182,0.89246909423167963826,2.8645140197709739738,0.18633545166262782677,31,31,-0.012002533301711082458,0,0
1.6630906159882208832e-05,2.9995453711160968702,0.099184896145309439652,0.18659089611005644227,5.5166738156338057664,0.89247187996442622904,2.8645139948061864033,0.18634035559328732123,32,32,-0.011869172565639019012,0,0
1.6644605583378343659e-05,2.9994942932474835118,0.099188060500973049272,0.18662930950820597054,5.5166856014330534208,0.89247505071065780236,2.8645140199109642154,0.18634590241360868279,33,33,-0.011735810898244380951,0,0
1.6660109461511736934e-05,2.9994364589306625746,0.099191641297700777757,0.18667275403313457471,5.5166988700520764866,0.89247862024789759161,2.864513994976996436,0.18635218149266163934,34,34,-0.011602449230849742889,0,0
1.6677655249057910143e-05,2.999371054349067478,0.09919569334292785423,0.18672188377840923112,5.5167139533673728025,0.89248267804562408934,2.86451402013926959,0.18635928457594877483,35,35,-0.011469087563455104828,0,0
1.6697511678214395917e-05,2.9992970077223328751,0.099200278775361958039,0.18677743678609373679,5.5167309539674853625,0.8924872514897541631,2.86451399525857342,0.1863673249238774754,36,36,-0.011335725896060466766,0,0
1.6719982863114016768e-05,2.9992132582251600503,0.099205467755847570599,0.18684024545353680735,5.5167502608358809368,0.89249244540569871997,2.8645140205120998012,0.18637642118864264362,37,37,-0.01120236515998840332,0,0
1.6745412964508471997e-05,2.9991184534526520444,0.099211339871351930664,0.18691124820025456499,5.5167720413604994789,0.89249830459962686824,2.864513995722157258,0.18638671721120514402,38,38,-0.011069003492593765259,0,0
1.6774191448066420673e-05,2.9990112164241939929,0.099217984955826538096,0.18699150240393441758,5.5167967577112762001,0.89250495357331982582,2.8645140211213928616,0.18639836611680044021,39,39,-0.010935641825199127197,0,0
1.6806759054652863858e-05,2.9988898359349280831,0.099225504933071959068,0.18708219882954565949,5.5168246602473240969,0.89251245943390955517,2.8645139964846784153,0.18641155088985680854,40,40,-0.010802280157804489136,0,0
1.6843614535367788348e-05,2.9987525305317350721,0.099234014841428380693,0.18718467756413584291,5.5168563049224710326,0.8925209718917566093,2.8645140221178864159,0.18642646881470986697,41,41,-0.010668918490409851074,0,0
1.6885322292713877577e-05,2.9985971303970644364,0.099243645201054039862,0.18730044568182777076,5.5168920483450936132,0.89253058660439610339,2.8645139977380433827,0.18644335298036188164,42,42,-0.010535557754337787628,0,0
1.6932521005505875127e-05,2.9984213368826608814,0.099254543337402079128,0.18743119664198304442,5.5169325666409161357,0.892541485574724347,2.8645140237485402501,0.18646245722901391706,43,43,-0.010402196086943149567,0,0
1.6985933408130472224e-05,2.9982223942218655388,0.099266876381976454358,0.18757883162776350927,5.5169783524910283035,0.89255380101271786231,2.8645139997970292534,0.18648407878411552008,44,44,-0.010268834419548511505,0,0
1.7046377333610794407e-05,2.9979973428326855966,0.0992808330165567271,0.18774548279514396976,5.5170302360035954337,0.89256775628461659799,2.8645140264178552414,0.18650854391527715848,45,45,-0.010135472752153873444,0,0
1.7114778228257924314e-05,2.9977426787210648129,0.099296627246603791361,0.1879335385922575874,5.5170888841477516706,0.89258353039890647729,2.86451400317781113,0.18653623193601762131,46,46,-0.010002111084759235382,0,0
1.7192183288115581727e-05,2.9974545983045364217,0.099314500722705478797,0.18814567104844653889,5.5171553243412221335,0.89260139969968055329,2.8645140307887078102,0.18656756185219458555,47,47,-0.009868750348687171936,0,0
1.7279777472230684071e-05,2.997128642837085355,0.099334727464345892733,0.18838486509870061569,5.5172304468169670599,0.89262160311279792335,2.8645140087266494078,0.18660301804337342535,48,48,-0.0097353886812925338745,0,0
1.7378901595014143464e-05,2.9967599319452764561,0.099357616959194067219,0.18865444971555939135,5.5173155318355000531,0.89264448483112679433,2.8645140379469027359,0.18664313823644063106,49,49,-0.009602027013897895813,0,0
1.7491072812741519083e-05,2.9963427897629388852,0.099383520064197414245,0.18895813075257131275,5.5174117556733062173,0.89267036049420100952,2.8645140178305013023,0.186688541270404601,50,50,-0.0094686653465032577515,0,0
1.7618007772820889649e-05,2.9958709637052161057,0.099412833139713663311,0.18930002506622775615,5.5175207226272551253,0.89269966118271237843,2.8645140496709688982,0.18673991683149437915,51,51,-0.0093353036791086196899,0,0
1.7761648817017542756e-05,2.9953372282397912052,0.09944600541789949677,0.18968469557091185984,5.5176439755119712771,0.89273280075284144885,2.8645140327618259235,0.18679805581034689133,52,52,-0.0092019420117139816284,0,0
1.7924193591656899032e-05,2.9947335846520179992,0.099483544500602635874,0.19011718649320952235,5.5177835339569902828,0.89277032154643887196,2.8645140688732606549,0.18686384235467404236,53,53,-0.0090685812756419181824,0,0
1.810812855241062942e-05,2.9940508375041297029,0.099526025565507658666,0.19060305813111302897,5.5179414105565243176,0.89281276316207958121,2.8645140572424518943,0.18693828746606822033,54,54,-0.0089352196082472801208,0,0
1.8316266823696491378e-05,2.9932787702847440947,0.099574098648423897684,0.19114841998742546081,5.5181201573897196155,0.89286081040125453434,2.8645141003211866959,0.18702252407757105623,55,55,-0.0088018579408526420593,0,0
1.8551791022064401424e-05,2.9924056886486636309,0.099628500160297520094,0.19175996114902199574,5.5183223892987154358,0.89291516383551294833,2.8645140973649518834,0.18711784471176451383,56,56,-0.0086684962734580039978,0,0
1.8818301638783075297e-05,2.9914185659494858527,0.099690062491373673814,0.19244497632453422264,5.5185513411196298605,0.89297669065453633142,2.8645141518148964366,0.18722570048069292481,57,57,-0.0085351346060633659363,0,0
1.9119871744222033264e-05,2.9903025463833050601,0.09975972844289347774,0.19321138595913736613,5.5188103999958890711,0.89304629748660391275,2.864514163096913979,0.18734774384595059837,58,58,-0.0084017738699913024902,0,0
1.9461108779207093292e-05,2.9890410535875133746,0.099838563839088872998,0.19406774842437826689,5.5191036765290819588,0.89312508500003950918,2.8645142361087927441,0.18748583267586696466,59,59,-0.0082684122025966644287,0,0
1.9847224387774316815e-05,2.9876152459804483641,0.099927775643495711511,0.19502326237282890942,5.5194355485991204446,0.89321422355789703573,2.8645142707331601173,0.18764207942145383345,60,60,-0.0081350505352020263672,0,0
2.02841132688485726e-05,2.98600408108583526,0.10002872845286885084,0.19608775707009432065,5.5198112505799201699,0.89331511266060381615,2.8645143740412688516,0.18781886165980013481,61,61,-0.0080016888678073883057,0,0
2.0778442239769645891e-05,2.9841837149414591757,0.10014296727831976941,0.19727166881690205713,5.520236431876249128,0.89342926017080670498,2.864514446886639476,0.18801887933699987232,62,62,-0.0078683272004127502441,0,0
2.133775075223835353e-05,2.9821275149487282974,0.10027223903273131678,0.19858600157516656526,5.5207177695691243002,0.89355844798537997775,2.8645145996227263652,0.18824517358647405163,63,63,-0.0077349659986793994904,0,0
2.1970564347254517015e-05,2.979805395689572034,0.10041852122160367655,0.20004227055132117741,5.5212625458460626859,0.89370461575894422079,2.8645147349689956684,0.18850119410036672574,64,64,-0.0076016047969460487366,0,0
2.268652261163062994e-05,2.9771837745273641573,0.10058404983334744143,0.2016524278800689296,5.5218792910334375534,0.893870034573538641,2.8645149682863877416,0.18879082844360864368,65,65,-0.007468243129551410675,0,0
2.3496523479235761867e-05,2.9742248382932512385,0.10077135551525016888,0.20342877059209546475,5.5225773853658521872,0.89405719632523750207,2.8645152056836420407,0.18911848210407855575,66,66,-0.0073348814621567726135,0,0
2.4412885827116218018e-05,2.9708864395712750728,0.1009832996456151849,0.20538383181739575112,5.5233677414436508357,0.89426899763790257403,2.8645155702241300588,0.18948912102739048913,67,67,-0.0072015202604234218597,0,0
2.5449532633941963455e-05,2.9671212937023554446,0.10122311997750860213,0.20753025750616371781,5.5242624374497015793,0.89450863635962507558,2.8645159739525758447,0.189908367458351518,68,68,-0.0070681585930287837982,0,0
2.6622197105720871434e-05,2.9628768211806217892,0.10149447712309618563,0.2098806718709281538,5.5252754507886248092,0.89477980856235772578,2.864516551850068371,0.19038255898236600139,69,69,-0.0069347973912954330444,0,0
2.7948654525568043019e-05,2.9580942840713402298,0.10180151213876174887,0.2124475360312817751,5.5264223320251346649,0.89508661391969601695,2.8645172260892604044,0.19091886387944509429,70,70,-0.0068014357239007949829,0,0
2.944898274518521731e-05,2.9527085934039076776,0.10214890618814434498,0.21524300498152557082,5.5277210049977352213,0.89543376936326701809,2.8645181501543333091,0.19152536052819341128,71,71,-0.0066680740565061569214,0,0
3.1145854610835455403e-05,2.9466474109115292634,0.10254195311200617335,0.21827878873765280132,5.5291914935341299753,0.89582652545982144332,2.8645192631441025455,0.19221117657737835094,72,72,-0.0065347128547728061676,0,0
3.3064865780579953247e-05,2.9398309626400283001,0.10298663564224370959,0.22156602340360553871,5.5308568078804416501,0.89627090116232677186,2.8645207472892235678,0.1929865930371255367,73,73,-0.0064013511873781681061,0,0
3.5234901759028005978e-05,2.9321711590723604779,0.10348971661515825315,0.22511515770934587,5.5327427397267978648,0.89677361361641960702,2.8645225694695115592,0.1938632119728350145,74,74,-0.0062679899856448173523,0,0
3.7688548097851375216e-05,2.9235714908508931842,0.10405883572678942262,0.2289358594865796015,5.5348788604996066454,0.89734233942029451025,2.8645249564688790578,0.19485408974314871733,75,75,-0.0061346283182501792908,0,0
4.046254801207694045e-05,2.9139262612926324358,0.10470262361206848778,0.23303694544109268549,5.5372984043352433403,0.89798566043720096097,2.8645279199729700714,0.19597393781021343884,76,76,-0.0060012666508555412292,0,0
4.3598311651367674803e-05,2.9031206904322952589,0.10543082361370929856,0.23742633576543398233,5.5400394105985002469,0.89871335795800988411,2.8645317554035933938,0.19723928892246395117,77,77,-0.0058679054491221904755,0,0
4.7142481376765444929e-05,2.8910304111703384322,0.1062544332303510114,0.24211103356248861451,5.5431447186962099494,0.89953637679353681822,2.8645365453677400502,0.19866873437133261704,78,78,-0.0057345437817275524139,0,0
5.1147557076313271147e-05,2.8775219751066547502,0.10718585537736753655,0.24709712710445089212,5.5466632944886500312,0.90046715944377730967,2.8645426899257500075,0.20028312456605543157,79,79,-0.0056011825799942016602,0,0
5.5672585241818919616e-05,2.8624528361341194937,0.10823907119437550794,0.25238981156137790807,5.5506503637679900365,0.90151962939964214172,2.8645503815022852478,0.20210584242025675383,80,80,-0.0054678209125995635986,0,0
6.0783914585461174636e-05,2.8456725317286974963,0.10942982407647768028,0.25799342535317626446,5.5551689679742404238,0.90270957223514691758,2.8645601770763273741,0.20416303404345634287,81,81,-0.0053344592452049255371,0,0
6.655601981698333169e-05,2.827023456972962201,0.11077582545228525923,0.26391149553075360368,5.5602902610281494944,0.90405463545851194596,2.8645724344284619889,0.20648390961252588438,82,82,-0.0052010980434715747833,0,0
7.3072393056706249747e-05,2.8063430735801335736,0.11229697094639572164,0.27014678583855722405,5.5660953386319738101,0.90557476100789036089,2.8645879400420288796,0.20910098771318819111,83,83,-0.0050677363760769367218,0,0
8.0426499600504960464e-05,2.7834658408230588122,0.11401557430614392419,0.27670134105595567409,5.5726757071966526169,0.90729219075350675539,2.8646072912800102372,0.21205039785314397371,84,84,-0.004934375174343585968,0,0
8.872279040233129496e-05,2.7582268507574734251,0.11595660538499309722,0.28357652104369118762,5.5801354104778670973,0.90923194741525181772,2.8646315975905869422,0.21537209780156765793,85,85,-0.0048010135069489479065,0,0
9.8077757987657100095e-05,2.730465289591732958,0.11814793258600876646,0.29077301827759816089,5.5885916302669897959,0.91142181724504922613,2.8646617839613019996,0.21911011849101680315,86,86,-0.004667651839554309845,0,0
0.00010862101428534920531,2.7000298614693987176,0.1206205510512378537,0.29829085270015781584,5.5981770665124424013,0.91389285842842538088,2.8646993866651877525,0.22331266817077341513,87,87,-0.0045342906378209590912,0,0
0.00012049635824002873964,2.6667840465523928728,0.12340878261251259085,0.30612933812496789798,5.6090405067105351122,0.9166792967676702375,2.8647457368192470462,0.22803219881784322909,88,88,-0.0044009289704263210297,0,0
0.00013386278641256782419,2.6306134953309934232,0.12655041888714155252,0.31428701439503781145,5.6213492434889351657,0.919819002100717098,2.8648028737585962133,0.23332522978952932591,89,89,-0.0042675673030316829681,0,0
0.00014889538122462415114,2.5914330671664367323,0.13008676543852290552,0.32276153978072597006,5.6352891739561163931,0.92335316359841546063,2.8648725382184121457,0.23925200816764505274,90,90,-0.0041342061012983322144,0,0
