"epsilon","mach_number","pressure","rad_temp","rho","rhoE","rhou","temperature","GlobalNodeId","PedigreeNodeId","Points:0","Points:1","Points:2"
1.6530946719787199546e-05,2.9999332884348883788,0.099160876625473431956,0.18630988754037988708,5.5165846245772023337,0.89244788197008406705,2.8645140090117662268,0.18629824169649430998,1,1,-0.016003377735614776611,0,0
1.653105824464475189e-05,2.9999295064324260629,0.09916111087045670347,0.18631020177118975956,5.5165854861893341976,0.89244811514151345389,2.8645140050837403223,0.18629865268645121046,2,2,-0.015774758532643318176,0,0
1.6531385999868944371e-05,2.9999256614653631026,0.099161349223983105694,0.18631112524032042432,5.51658637791598494,0.89244835449535997451,2.8645140090119491916,0.18629907037820334081,3,3,-0.015546138398349285126,0,0
1.653193953397290395e-05,2.9999215456678447467,0.099161604039562936674,0.18631268482320800794,5.516587316369548688,0.89244860816368443146,2.8645140050841755297,0.18629951741984124292,4,4,-0.015317519195377826691,0,0
1.653273976655204923e-05,2.9999169658775852731,0.099161887811518190095,0.18631493941005991544,5.5165883771331465368,0.892448892857248266,2.8645140090130070121,0.18630001473249011013,5,5,-0.01508889906108379364,0,0
1.653381968889089935e-05,2.9999116896776332197,0.099162214409120458258,0.18631798186913822724,5.5165895824691384419,0.89244921821981482157,2.864514005085700532,0.18630058762110135451,6,6,-0.014860279858112335205,0,0
1.6535225650816052898e-05,2.9999054786836727438,0.099162599123302219706,0.18632194265437246328,5.5165910183664408351,0.89244960375469473135,2.8645140090156924195,0.18630126190940851649,7,7,-0.014631659723818302155,0,0
1.6537019311249001938e-05,2.9998980318636112585,0.099163060069218794679,0.18632699527218476998,5.5165927228695172957,0.8924500633465537458,2.8645140050895943062,0.18630207034619167272,8,8,-0.014403040520846843719,0,0
1.6539280299408421485e-05,2.9998890171793961557,0.099163618334834016665,0.18633336373442471734,5.516594803511921441,0.89245062229041371982,2.8645140090219878282,0.18630304891853655125,9,9,-0.014174420386552810669,0,0
1.6542109731802903612e-05,2.9998780097994539595,0.099164299699759858586,0.18634133239791841885,5.5165973268136108132,0.89245130212856982332,2.864514005098926841,0.18630424381283472446,10,10,-0.013945801183581352234,0,0
1.6545634705784405483e-05,2.999864519496485471,0.09916513504688594105,0.18635125851794462348,5.5166004367003127484,0.89245213794335453983,2.8645140090367413599,0.18630570818885058837,11,11,-0.013717181049287319183,0,0
1.6550014001364631814e-05,2.9998479207065251728,0.099166162586443326599,0.18636358814852588273,5.5166042458689661387,0.89245316369770411047,2.8645140051209807552,0.18630751002676410044,12,12,-0.013488561846315860748,0,0
1.6555445212378102829e-05,2.9998274721549775812,0.099167428749670716304,0.18637887598202435013,5.5166089560101143618,0.8924544300109936712,2.8645140090710845548,0.1863097297457836643,13,13,-0.013259941712021827698,0,0
1.6562173660548301543e-05,2.999802234478682994,0.099168991184060847899,0.18639781007759737008,5.5166147520259638526,0.89245599026847222124,2.8645140051727766561,0.18631246940354495578,14,14,-0.013031322509050369263,0,0
1.6570503459391356272e-05,2.9997710769583085799,0.099170920447445923274,0.18642124244138161271,5.5166219252438821741,0.89245791919900618883,2.8645140091512582003,0.18631585171709064142,15,15,-0.012802702374756336212,0,0
1.6580811261226108467e-05,2.9997325763950359878,0.099173304166758693978,0.18645022685243609062,5.5166307719402079002,0.89246030014459165614,2.8645140052942115183,0.18632003130237695387,16,16,-0.012574083171784877777,0,0
1.6593563272733230263e-05,2.9996850032873934033,0.099176250009828548215,0.18648606541892653876,5.5166417213291891741,0.89246324491809581048,2.8645140093384746649,0.18632519593358334853,17,17,-0.012345463037490844727,0,0
1.6609336342818799921e-05,2.9996261924878404592,0.099179891598423580712,0.18653036587759855292,5.5166552405795572511,0.89246688282170738571,2.864514005578549849,0.18633158085811968308,18,18,-0.012116843834519386292,0,0
1.6628844039585243984e-05,2.9995534972338186996,0.09918439348211373352,0.18658511183765030816,5.5166719702911954926,0.8924713825104397813,2.8645140097755814601,0.18633947356243857341,19,19,-0.011888223700225353241,0,0
1.6652968930705017077e-05,2.9994636172452322498,0.099189959703212746134,0.18665274880980400884,5.5166926393313184818,0.89247694365412000295,2.8645140062440632711,0.186349232735035647,20,20,-0.011659604497253894806,0,0
1.6682802488763222732e-05,2.9993525030211642957,0.099196841877360664164,0.18673628914692486092,5.5167182119382580652,0.89248382191332831237,2.8645140107966660104,0.18636129847177482222,21,21,-0.011430984362959861755,0,0
1.6719694460969823082e-05,2.9992151196430003601,0.099205351779350178787,0.18683943974882402661,5.5167498174635118957,0.89249232460958194402,2.8645140078010182805,0.18637621828339639984,22,22,-0.01120236515998840332,0,0
1.6765313894703523566e-05,2.9990452746617117796,0.099215874218449962019,0.18696675670151977067,5.5167889154392293349,0.89250284050464134822,2.8645140131825401753,0.18639466569180346278,23,23,-0.01097374502569437027,0,0
1.6821724610914873867e-05,2.9988352847142767388,0.099228885736318189759,0.18712383170397009491,5.5168372480156770976,0.89251584156348473531,2.8645140114423917055,0.18641747693913804373,24,24,-0.010745125822722911835,0,0
1.689147849090694579e-05,2.9985756866757244943,0.099244974858746309865,0.18731751525609660614,5.5168970327157023092,0.89253192012320814452,2.8645140187581046298,0.18644568248322762605,25,25,-0.010516505688428878784,0,0
1.6977730819702386168e-05,2.9982547575196507594,0.09926487010288881363,0.18755618184713365726,5.5169709495232455154,0.89255179993580158193,2.8645140199569110173,0.1864805599907360667,26,26,-0.010287885554134845734,0,0
1.7084382839896348442e-05,2.9978580481319587747,0.099289471555475863895,0.18785004172912866949,5.5170623762739756657,0.89257638468381061969,2.8645140317880799508,0.18652368561602311603,27,27,-0.010059266351163387299,0,0
1.7216257966883551089e-05,2.9973676822565660238,0.099319893080500348814,0.18821150285540586,5.5171754287953556073,0.89260678317838515472,2.8645140398621773414,0.1865770117979664855,28,28,-0.009830646216869354248,0,0
1.7379319538035626339e-05,2.9967616227577136279,0.099357511269788284514,0.18865558393712170138,5.5173152619810990061,0.89264437527860684973,2.8645140622375548922,0.18664294882783752372,29,29,-0.009602027013897895813,0,0
1.7580939897136368792e-05,2.9960126400182458539,0.099404029337508692521,0.18920037570457451381,5.517488191404219755,0.89269085870727282739,2.8645140863870284242,0.18672448044180647853,30,30,-0.0093734068796038627625,0,0
1.7830232806293503457e-05,2.9950871783952788263,0.099461552701019001477,0.18986754089640447973,5.5177020957570137583,0.89274834164891792021,2.8645141333850263621,0.18682529169144554415,31,31,-0.0091447876766324043274,0,0
1.8138464051299697403e-05,2.9939438351050884357,0.099532686027585637323,0.1906828345975073169,5.5179666640635147701,0.89281942261247859705,2.8645141951011749981,0.18694994211682786078,32,32,-0.0089161675423383712769,0,0
1.851955844369211721e-05,2.9925316377743040874,0.099620649629901594779,0.19167661408612859941,5.5182939550608258727,0.89290732391930327516,2.8645142995857963975,0.18710406428299422577,33,33,-0.0086875483393669128418,0,0
1.8990725693328457411e-05,2.9907878106537295615,0.099729427236425916004,0.19288429248365140944,5.5186988390234104074,0.89301602212934683145,2.864514449037944388,0.18729462459233087168,34,34,-0.0084589282050728797913,0,0
1.9573232643729320776e-05,2.9886352042055155387,0.099863944948556132575,0.19434667357550791666,5.5191998013998482264,0.89315044420973976891,2.8645146876738634134,0.18753022943763322794,35,35,-0.0082303090021014213562,0,0
2.0293355656066809341e-05,2.9859790527914036318,0.10003029668242695294,0.19611008993438441839,5.5198196882901431337,0.89331667539072090456,2.8645150418634695022,0.18782151913648376107,36,36,-0.0080016888678073883057,0,0
2.1183554345287149053e-05,2.9827032283419869785,0.10023601904743845159,0.19822625676149463469,5.5205868931435508884,0.89352225144813435254,2.8645155932958523692,0.18818163743932642129,37,37,-0.0077730691991746425629,0,0
2.2283916991834817585e-05,2.9786656391218597761,0.10049043579955699301,0.2007517570962006892,5.5215365805398581855,0.89377648521189823061,2.8645164246853211942,0.18862682691389370815,38,38,-0.0075444495305418968201,0,0
2.364393862772955069e-05,2.9736929578242108363,0.1008050798001517423,0.20374709624919487561,5.5227124799965432445,0.89409090625482656733,2.8645177044625644847,0.18917714506647378969,39,39,-0.0073158298619091510773,0,0
2.5324705597916825759e-05,2.9675743500311826395,0.10119421981897791518,0.20727531007056620993,5.5241688725107307434,0.89447976923826144624,2.8645196460976212194,0.18985736245406215073,40,40,-0.0070872101932764053345,0,0
2.7401575061823603592e-05,2.9600544711376590712,0.10167550779065824551,0.21140018057024978493,5.5259733595589821675,0.89496071949184807792,2.8645226181151675071,0.19069804745728136108,41,41,-0.0068585905246436595917,0,0
2.9967454781511941619e-05,2.9508255255942317241,0.10227078443493245463,0.2161841934396096232,5.5282100840066892289,0.89555557951450370791,2.8645271355478230113,0.19173691325565281329,42,42,-0.0066299708560109138489,0,0
3.3136806878055353456e-05,2.939518901307689891,0.10300707011362245091,0.22168644362647904611,5.5309840890318282547,0.89629135934806791752,2.864534025504430037,0.19302044321690972617,43,43,-0.0064013511873781681061,0,0
3.7050518536024000581e-05,2.9256965214763179794,0.10391779346911146631,0.22796073300654895455,5.5344265653656421478,0.8972014654751802043,2.8645444918732816397,0.19460588546236137764,44,44,-0.0061727315187454223633,0,0
4.1881800549284714454e-05,2.9088429998401261756,0.10504429918489124884,0.23505408772572861098,5.5387018328902284381,0.8983272307661186451,2.8645604006793576879,0.19656363956364789058,45,45,-0.0059441118501126766205,0,0
4.7843288016708948335e-05,2.8883595139094984106,0.10643770379679796945,0.24300584895970159249,5.5440159353558611244,0.89971975076522092696,2.864584504215404781,0.19898012993534264226,46,46,-0.0057154921814799308777,0,0
5.5195519504284977399e-05,2.8635616074749230542,0.10816115132893203143,0.25184737494776782141,5.5506279327184513406,0.90144216790893139102,2.864620973270539217,0.20196116527343171976,47,47,-0.0054868725128471851349,0,0
6.4256951035588052881e-05,2.833683220896612287,0.11029253946797250296,0.26160226556811738696,5.5588639088220919149,0.90357238147768847991,2.8646759400658448058,0.20563582494609375373,48,48,-0.0052582528442144393921,0,0
7.5415600012466261701e-05,2.7978909271455600916,0.11292773843737526074,0.27228691400263993483,5.5691349900700952702,0.9062063099896996432,2.8647584844564373263,0.21016073037482754793,49,49,-0.0050296331755816936493,0,0
8.9142281253110910457e-05,2.7553124881501762644,0.11618428772294139839,0.28391112340035740136,5.5819591891281756801,0.90946158132754284509,2.86488169073678689,0.21572447766203228792,50,50,-0.0048010135069489479065,0,0
0.0001060051420761625742,2.7050855347845126353,0.12020537582845808311,0.29647850037744766238,5.5979877540649232159,0.91348158287898129082,2.8650641990007041926,0.22255155327058578907,51,51,-0.0045723938383162021637,0,0
0.00012668474935692751134,2.6464315023297615426,0.12516362925144602913,0.30998633989338492123,5.6180333559004722588,0.91843924547241018175,2.86533146531070404,0.23090456405813145069,52,52,-0.0043437741696834564209,0,0
0.00015198821633501634343,2.578760682828609152,0.1312635563940368344,0.32442472990696358259,5.643095197740980673,0.92453954778159819217,2.8657165319251380886,0.24108238156780636974,53,53,-0.0041151545010507106781,0,0
0.00018285964431120948007,2.5018112147347646435,0.13874032708891945176,0.33977462343392456079,5.6743647916974948586,0.93201811961603209244,2.8662574976387302783,0.2534102311745445868,54,54,-0.0038865345995873212814,0,0
0.00022038238608904802589,2.4158228453429506644,0.14785033831621183231,0.35600466784915058005,5.7131807169007542413,0.94113145490556460171,2.8669881725616681578,0.26821498881211919274,55,55,-0.0036579149309545755386,0,0
0.00026576641842649919483,2.3217277150069119962,0.15884689476559069043,0.37306671075409042482,5.7608808942081148885,0.9521315418831801658,2.8679154155243171687,0.28577781821900383186,56,56,-0.0034292952623218297958,0,0
0.00032031208187254287629,2.2212959405440559912,0.17193600320344040733,0.39089021783480021321,5.8185365937671988945,0.96522105702027538587,2.8689894481299091922,0.30626103096460288722,57,57,-0.003200675593689084053,0,0
0.00038534118662925825362,2.1171256004045835297,0.18721589672158917006,0.40937642564814602508,5.8866332494383852847,0.98049348696771254641,2.8700866398769808718,0.32962066140146439874,58,58,-0.0029720559250563383102,0,0
0.00046209058353623258834,2.0124016168516529746,0.20461534115082322116,0.428393873974931505,5.9648379551088970274,0.99787476602781066681,2.8710330338553800011,0.35553161484171336149,59,59,-0.0027434362564235925674,0,0
0.0005515744563740944276,1.9104486779427705123,0.22385472433082562183,0.44777774876583265051,6.0519509491437899484,1.017086232583526817,2.8716613223621600959,0.38336242903189238218,60,60,-0.0025148165877908468246,0,0
0.0006544395635497817507,1.8142170368463379493,0.24445414741908419454,0.46733559291313153672,6.1460806658309481421,1.0376534994028321357,2.8718808678259102329,0.4122283320829990827,61,61,-0.0022861969191581010818,0,0
0.00077085528901965898619,1.7258511273447605383,0.26580197033094560277,0.48686066314380882503,6.2449682244523518904,1.0589695787721067344,2.8717047921112932585,0.44113005309246505758,62,62,-0.0020575772505253553391,0,0
0.00090048319846298757133,1.6464713130734884849,0.28727138276831204466,0.50615132217974967421,6.346417740300899446,1.0804118110910816419,2.8712466009217996188,0.46913992357715311732,63,63,-0.0018289574654772877693,0,0
0.0010425477190766775475,1.5761774979280529507,0.30834762938961735035,0.52503161784358498565,6.4486579304032973781,1.1014628007683266997,2.8706495418195512315,0.49557564706963680434,64,64,-0.0016003377968445420265,0,0
0.0011959865863476930661,1.5142632433119378454,0.32871878966232204178,0.54336673756127806811,6.5507095900415919232,1.1218125418307518526,2.8700718965553719819,0.52008564384946021075,65,65,-0.0013717181282117962837,0,0
0.0013596223196116663436,1.4593849697011154198,0.34834570005899095912,0.5610687023804467044,6.6529874962273227723,1.1414188951416208706,2.8696816655736361312,0.54266577218623013312,66,66,-0.0011430984595790505409,0,0
0.0015322633119783408018,1.4088954033610279204,0.36785579531485701477,0.5780891561721750449,6.7625461955774905931,1.1609501533147039698,2.870371584110724239,0.56377529488748268083,67,67,-0.00091447873273864388466,0,0
0.0017125375756622978653,1.3555538518157534966,0.39022333201319359119,0.59439000716831436044,6.9149883452766713887,1.1835722885792594461,2.8763880455556916083,0.58487150585098168776,68,68,-0.00068585906410589814186,0,0
0.0018982329326288319322,1.2897321321841812569,0.42088082049686248443,0.60988625825147146919,7.1894840609398649178,1.2154369969644822636,2.898099797425967683,0.60673646007950987613,69,69,-0.00045723936636932194233,0,0
0.0020856265829812610686,1.2061290472708934285,0.4647142832206826446,0.62441109390467541829,7.6572911528591633967,1.261113835772780023,2.9390601320917508765,0.62899840410602603225,70,70,-0.00022861968318466097116,0,0
0.0022692541313758260793,1.1052737781191861455,0.52490687879174280361,0.63772325755987557816,8.3593114952225597847,1.3223447113368838046,2.9906860472162053455,0.65080433718929830977,71,71,0,0,0
0.0024421435316655075443,0.99221043031053257621,0.60283594094789827444,0.64953755833006687759,9.3119114938823113192,1.3993555314130152745,3.0365582118089244901,0.67096363156736038569,72,72,0.00022861968318466097116,0,0
0.0025965795115888497431,0.87502246203112743483,0.69723627866128889963,0.65957149556089356146,10.503387728840976933,1.4911702877251282739,3.0585374906528386418,0.68800130476113940947,73,73,0.00045723936636932194233,0,0
0.0027254597281611910205,0.76331542539630026223,0.80248109444684456726,0.6676078189682858044,11.876022137681085056,1.5937127774167569871,3.0435321836300368581,0.70032961914218094801,74,74,0.00068585906410589814186,0,0
0.0028240587804992320353,0.667243301518703813,0.90715898377444204037,0.67356560954910094097,13.304602758540967855,1.6975840982757657294,2.9938597512369331533,0.70667573106732561872,75,75,0.00091447873273864388466,0,0
0.0028916467440931428907,0.59533233218512981999,0.99453487450763622402,0.67756003425885358293,14.59186514280690794,1.7857663501590377297,2.9289877751678305984,0.70639544910399065802,76,76,0.0011430984595790505409,0,0
0.0029322212762701456955,0.55274499573285595933,1.0502964039365747517,0.67992444795641238109,15.537743671163422476,1.8430552330363785263,2.8837706399751881214,0.70058786276225137879,77,77,0.0013717181282117962837,0,0
0.0029534113217779605839,0.53445948819864375068,1.0736547846037438614,0.68114952171457143759,16.06880217780320308,1.8662414160562550425,2.8669656129723599669,0.6925001037434104223,78,78,0.0016003377968445420265,0,0
0.0029634918068287001598,0.52787267920750879924,1.0828026585484564759,0.68172999847715931576,16.331521007200684892,1.8758228259171192409,2.8668169339644609117,0.68716552475669312461,79,79,0.0018289574654772877693,0,0
0.0029680988639298761661,0.52417676697045201273,1.0869877817225295225,0.68199479925095574107,16.458181514045872262,1.8795479536926578135,2.8632776342004087056,0.68451268060371328605,80,80,0.0020575772505253553391,0,0
0.0029701638718234646061,0.52334232476785780275,1.0887273757445909972,0.68211339009185056881,16.515244943270371181,1.8817621627956824248,2.8659607330858438701,0.6832392498857827734,81,81,0.0022861969191581010818,0,0
0.0029710820793419027291,0.52221893964641274977,1.0895303065207775362,0.68216610174973801861,16.541210618852247194,1.8820826601495301844,2.8631107633516559297,0.68266982493611128024,82,82,0.0025148165877908468246,0,0
0.0029714884295356180054,0.52247174066752333221,1.0898674654833506725,0.68218942524807402172,16.552595331446362081,1.8829050811523604381,2.8659255144775745983,0.6824114005966475105,83,83,0.0027434362564235925674,0,0
0.0029716680803415405042,0.52183957552806314872,1.0900232674479384265,0.6821997359984333098,16.557704672071455576,1.8825741271716112113,2.8631041729135264795,0.6822983475598802805,84,84,0.0029720559250563383102,0,0
0.0029717473799042181705,0.52230265540687570436,1.0900889737320249573,0.68220428711231217989,16.55993423782977203,1.8831271557956124063,2.8659241573193452446,0.68224760874614631678,85,85,0.003200675593689084053,0,0
0.002971782399097375009,0.52176576884225100983,1.0901191879033893528,0.68220629688426437376,16.560929697132635852,1.8826697590974905694,2.8631039201503400982,0.68222550842139795257,86,86,0.0034292952623218297958,0,0
0.0029717978490689297283,0.52226974325024366763,1.0901320931276001769,0.68220718356151022199,16.561366016104173582,1.8831703862246425007,2.8659241060182734095,0.68221561100625061069,87,87,0.0036579149309545755386,0,0
0.002971804670385705914,0.52175139770797052119,1.0901378653898370352,0.68220757503727147419,16.561558265792978517,1.8826883804940421907,2.8631039103953619396,0.68221130401663820919,88,88,0.0038865345995873212814,0,0
0.0029718076795215682753,0.52226333410375913591,1.0901404901024471794,0.68220774773153702863,16.56164495794154945,1.8831788048523643297,2.8659241041398071381,0.68220937551642946151,89,89,0.0041151545010507106781,0,0
0.0029718090080699823517,0.52174859909109638778,1.090141502639651927,0.68220782397687040888,16.561680695796834328,1.8826920068243744311,2.8631039099956612226,0.68220853704525830086,90,90,0.0043437741696834564209,0,0
0.002971809594073425171,0.52226208580383781666,1.0901421255733070304,0.6822078576075734091,16.561699291763549269,1.8831804445416227001,2.8659241040822327484,0.68220816087158997476,91,91,0.0045723938383162021637,0,0
