"epsilon","mach_number","pressure","rad_temp","rho","rhoE","rhou","temperature","GlobalNodeId","PedigreeNodeId","Points:0","Points:1","Points:2"
1.6530950343415659148e-05,2.9999332798527316157,0.099160876385820675982,0.18630989775028750088,5.5165846012140855592,0.89244787556537075179,2.86451399130392792,0.18629824203523320802,1,1,-0.016003377735614776611,0,0
1.6531036164713291628e-05,2.999929989265774477,0.099161081721164265335,0.18631013955922356984,5.5165854005277399352,0.89244809216042209066,2.86451402279096623,0.18629860081514817982,2,2,-0.015803335234522819519,0,0
1.6531287037811882672e-05,2.9999266260625092606,0.099161288694527893739,0.18631084641049941442,5.5165861308196504353,0.89244828781781926352,2.8645139913036743451,0.1862989650032966793,3,3,-0.015603293664753437042,0,0
1.6531707939088835697e-05,2.9999231371710743943,0.09916150623132660713,0.18631203230915735491,5.5165869758028662773,0.89244851655870760521,2.8645140227915577569,0.18629934516415430634,4,4,-0.01540325116366147995,0,0
1.6532310452556904994e-05,2.999919309312222282,0.099161741910215553397,0.18631372986477220954,5.5165878129946364083,0.89244874086278269676,2.8645139913038635271,0.18629975967240466894,5,5,-0.015203209593892097473,0,0
1.653311301263761117e-05,2.9999150797217200015,0.09916200525405212407,0.1863159909709939388,5.5165888283436483874,0.89244901534734788484,2.8645140227927599064,0.18630022013940822356,6,6,-0.015003167092800140381,0,0
1.6534141447241355172e-05,2.999910213323558672,0.099162305188785451748,0.18631888832829504588,5.5165899043788995115,0.89244930383600229451,2.8645139913047756863,0.18630074730179541076,7,7,-0.014803124591708183289,0,0
1.6535429761836713513e-05,2.999904615848947298,0.099162653186257776472,0.18632251764177584774,5.5165912343004439577,0.89244966289355143196,2.8645140227951442213,0.18630135618760024219,8,8,-0.014603083021938800812,0,0
1.6537021260922209513e-05,2.999898007126399424,0.099163060963148280669,0.18632700076405619982,5.5165927110061447891,0.89245005913014574528,2.8645139913070720716,0.1863020724262975103,9,9,-0.014403040520846843719,0,0
1.6538969967919724856e-05,2.9998902357781771499,0.099163543526513922566,0.18633248967104362737,5.5165945408374481573,0.8924505526439421299,2.8645140227998946436,0.18630291724373165829,10,10,-0.014202998019754886627,0,0
1.6541342464919249505e-05,2.9998809476197698665,0.09916411717508978596,0.18633917160914056921,5.5165966337112228857,0.89245111462153769999,2.8645139913123363051,0.18630392430299738682,11,11,-0.014002955518662929535,0,0
1.6544220137781057151e-05,2.9998699009496991863,0.099164802508816887738,0.18634727536794501446,5.5165992167534518842,0.89245181075146229333,2.8645140228095145041,0.1863051246353125967,12,12,-0.013802913948893547058,0,0
1.6547701979093230862e-05,2.9998566288076271569,0.099165622809819872763,0.18635707910054871705,5.5166022258165900993,0.89245261919585372468,2.8645139913239301421,0.18630656414756688322,13,13,-0.013602871447801589966,0,0
1.6551907966985388335e-05,2.9998407535527715773,0.099166607097230699552,0.18636891973136462952,5.5166059193118544002,0.89245361405893131046,2.8645140228291787743,0.18630828863131393414,14,14,-0.013402828946709632874,0,0
1.6556983213716063046e-05,2.999821641315489007,0.099167788990821431616,0.18638320448197234769,5.5166102714840912213,0.89245478382928289385,2.8645139913490695882,0.18631036211792462165,15,15,-0.013202787376940250397,0,0
1.6563102947432656456e-05,2.9997987140432988973,0.099169209924760456931,0.18640042467093534406,5.5166155868777266846,0.8924562150211673428,2.8645140228697174578,0.18631285216434470553,16,16,-0.013002744875848293304,0,0
1.6570478578460741035e-05,2.9997710938388655322,0.099170918636737645513,0.18642117246256925678,5.516621895885264415,0.89245791122498563386,2.8645139914029718042,0.18631584930679453982,17,17,-0.012802702374756336212,0,0
1.6579364978461480322e-05,2.9997379098729202163,0.099172974703224267556,0.18644616087872872834,5.5166295704692442925,0.89245997709009972088,2.8645140229537298104,0.1863194529074345962,18,18,-0.01260265987366437912,0,0
1.659006930511847336e-05,2.9996979293480539042,0.099175448856341566484,0.18647624794154621375,5.5166387227152338113,0.8924624381780797977,2.8645139915177026957,0.18632379206187157927,19,19,-0.012402618303894996643,0,0
1.6602961594493709588e-05,2.9996498555294328625,0.099178427075551106595,0.18651246547368635631,5.5166498227098097473,0.89246542553088825667,2.8645140231285628474,0.18632901241722432673,20,20,-0.012202575802803039551,0,0
1.6618487570001783658e-05,2.9995919406806468288,0.099182012021737958607,0.18655605367673122608,5.5166631011441342736,0.89246899660517065023,2.8645139917609303559,0.18633529904176951431,21,21,-0.012002533301711082458,0,0
1.663718402609662105e-05,2.9995222697940784329,0.099186328026038036998,0.18660850228993802746,5.5166791706545756924,0.89247332077956043062,2.8645140234935206891,0.18634286480949815989,22,22,-0.011802491731941699982,0,0
1.6659697402816659644e-05,2.9994383488278266725,0.099191524057791941038,0.18667159976633557195,5.5166984339839437723,0.8924785017703338319,2.8645139922752385075,0.18635197596326075198,23,23,-0.011602449230849742889,0,0
1.6686806106480068596e-05,2.9993373663088647163,0.099197780105162627895,0.18674749160292627992,5.5167217106829475881,0.89248476459141146133,2.864514024256866076,0.18636294292936170236,24,24,-0.011402406729757785797,0,0
1.6719447433685534227e-05,2.9992157472989195988,0.099205312278458385178,0.18683874962414462328,5.5167496530096720164,0.89249228002933511661,2.8645139933605165972,0.18637614962927689932,25,25,-0.01120236515998840332,0,0
1.675874993982235395e-05,2.9990693815881028783,0.099214381300789161733,0.18694845371018162239,5.5167833807502653087,0.8925013538014667791,2.8645140258558483559,0.18639204797728073371,26,26,-0.011002322658896446228,0,0
1.6806072457029879352e-05,2.998893129669085944,0.099225300616580303092,0.18708028810778687401,5.5168239080172805089,0.89251225392601352127,2.8645139956475791365,0.18641119246501347551,27,27,-0.010802280157804489136,0,0
1.6863051016953984978e-05,2.9986810013159685973,0.099238448035004755976,0.18723865407610917888,5.5168727902043075417,0.8925254031608174099,2.8645140292083928202,0.18643424015913359626,28,28,-0.010602237656712532043,0,0
1.6931655385169522922e-05,2.9984255939580837236,0.099254278102852255827,0.18742880114272678083,5.5169315662722908655,0.89254121047797363442,2.8645140004627136499,0.1864619927623003548,29,29,-0.010402196086943149567,0,0
1.701425706170297877e-05,2.9981181984903013671,0.099273338414063896917,0.18765697862676275487,5.5170024236829595665,0.8925602683541837834,2.8645140362420122848,0.18649540474358400344,30,30,-0.010202153585851192474,0,0
1.7113711178455342718e-05,2.9977481421718095156,0.099296288070967159145,0.18793060926516894082,5.5170876628524663232,0.89258319010195985577,2.8645140105933943886,0.18653563606153239496,31,31,-0.010002111084759235382,0,0
1.7233455013034116384e-05,2.9973027888319418999,0.099323920855904204719,0.18825848562906646877,5.5171903885853872396,0.89261081429121846842,2.8645140510040594251,0.18658407223865211555,32,32,-0.0098020695149898529053,0,0
1.7377626592418985878e-05,2.9967667470046381872,0.099357192424124232688,0.18865098946334626917,5.5173140064379166958,0.89264405047578321284,2.8645140318959589898,0.18664239234981253035,33,33,-0.009602027013897895813,0,0
1.7551207352092776549e-05,2.9961217184796975488,0.099397253523632392302,0.18912033192075553001,5.517462953103740908,0.89268409405408877255,2.8645140819917798147,0.18671260655142946083,34,34,-0.0094019845128059387207,0,0
1.7760193822027495165e-05,2.995345517013468406,0.099445489751715340776,0.18968081081388302178,5.5176422389407751012,0.89273228407083538016,2.8645140766694923151,0.18679714598060617736,35,35,-0.0092019420117139816284,0,0
1.8011804094004089363e-05,2.9944117017263343072,0.099503569445077155731,0.1903490772472683501,5.5178582355533718484,0.89279033331612522861,2.8645141470396335848,0.18689892569297356095,36,36,-0.0090019004419445991516,0,0
1.8314726185612112354e-05,2.9932883318905738612,0.099573501556434157456,0.19114440033882793002,5.5181182854261807691,0.89286020353753969836,2.8645141707296564171,0.18702146604973471367,37,37,-0.0088018579408526420593,0,0
1.8679416610514761558e-05,2.991937299891928248,0.099657704919466599813,0.1920889131322061627,5.518431573548683744,0.89294435774058256161,2.8645142835607830811,0.18716899251699861684,38,38,-0.008601815439760684967,0,0
1.9118459320858260182e-05,2.9903127238541160615,0.099759092302609875258,0.19320781763190919555,5.5188088350915425195,0.89304566054617251503,2.8645143682248113137,0.18734660230472061082,39,39,-0.0084017738699913024902,0,0
1.9646996953782879051e-05,2.9883598704801439538,0.09988117077169209046,0.19452952064299089407,5.5192633508096138328,0.8931676627932760848,2.864514569980141534,0.18756041745758103567,40,40,-0.0082017313688993453979,0,0
2.0283248849131966569e-05,2.986013063047824545,0.10002816360075705848,0.19608566793720982879,5.5198107987755093973,0.89331453825143303238,2.8645147826170989092,0.18781781643884171151,41,41,-0.0080016888678073883057,0,0
2.1049132847076592131e-05,2.9831940635351643643,0.10020515582259824361,0.19791104157356964599,5.5204704328197315988,0.89349141517125962864,2.8645151705018232491,0.18812766394582483565,42,42,-0.0078016468323767185211,0,0
2.1971011311383447002e-05,2.9798093587667073834,0.10041827091035601671,0.20004328794709314021,5.5212651473742635488,0.89370436557809329603,2.8645156513099525597,0.1885006354087924163,43,43,-0.0076016047969460487366,0,0
2.3080585373533811093e-05,2.9757478694795174157,0.10067488189924544972,0.20252245204421723268,5.5222229281451191696,0.89396080497547814048,2.8645164283440105457,0.18894955663259221934,44,44,-0.0074015622958540916443,0,0
2.4415965962398061096e-05,2.9708774957070049894,0.10098386726462797724,0.20539030974940478136,5.5233772347562384297,0.89426955763744664374,2.864517469987733822,0.18948986044398272166,45,45,-0.0072015202604234218597,0,0
2.6022954941415052545e-05,2.9650420726411739203,0.10135591697698687064,0.20868951252441184097,5.5247688592966284205,0.89464135505571562579,2.8645190590807692033,0.19014008214777353145,46,46,-0.0070014777593314647675,0,0
2.7956575508997613184e-05,2.9580571573530192175,0.10180390262074882901,0.21246258697581071884,5.5264467871377052077,0.89508901079329272754,2.8645212703913096597,0.19092250214055725421,47,47,-0.0068014357239007949829,0,0
3.0282896971841578388e-05,2.9497063269410634945,0.10234332026396618376,0.21675085880752467671,5.5284706715369233976,0.8956280614228654402,2.8645245489806372419,0.19186385914160253297,48,48,-0.0066013936884701251984,0,0
3.3081205841810492436e-05,2.9397364665679757145,0.10299282434630076255,0.22159339181695222876,5.5309124200568788865,0.89627709828862378583,2.8645291900868703472,0.19299624948909868682,49,49,-0.0064013511873781681061,0,0
3.6446581671503826478e-05,2.9278539286700500099,0.10377486576588275391,0.22702603938520327098,5.5338596058170459457,0.89705861223667593407,2.8645359675647790176,0.19435813658188511033,50,50,-0.0062013091519474983215,0,0
4.0492942513863252165e-05,2.9137201939493104774,0.10471645713517610532,0.23308069606881273717,5.5374181599608034432,0.89799954666592551877,2.864545626710544024,0.19599559147117462388,51,51,-0.0060012666508555412292,0,0
4.5356629357794771924e-05,2.8969492702617167801,0.10585008326508923981,0.23978480868616616761,5.5417172069033089343,0.89913242786375835447,2.8645595993444570304,0.19796368397472843825,52,52,-0.0058012246154248714447,0,0
5.1200600710567874697e-05,2.8771057533879127455,0.10721478240012079219,0.24716116650418459844,5.5469134303268923247,0.90049621918223909933,2.8645795300904719483,0.20032814229812748175,53,53,-0.0056011825799942016602,0,0
5.8219303881814357888e-05,2.853706346170685304,0.10885741741806083394,0.25522794531283143904,5.5531980338490791738,0.90213783291831084465,2.8646081375284278003,0.20316717818641755189,54,54,-0.0054011400789022445679,0,0
6.6644275284825893989e-05,2.8262241944844910257,0.11083415403524764231,0.26399894088682662741,5.5608035440029714991,0.90411335931835445923,2.8646488036297896862,0.20657356364442272523,55,55,-0.0052010980434715747833,0,0
7.6750490299370204505e-05,2.7940995627202771523,0.11321214803220171208,0.27348389829228525461,5.5700137376167964121,0.90649002795616051564,2.8647066608350084671,0.21065678289769093623,56,56,-0.005001055542379617691,0,0
8.8863424839429484142e-05,2.7567566097150599802,0.11607141050674982252,0.2836888285483184502,5.5811735720678212758,0.90934778936526250437,2.8647882522868726163,0.215545229873371047,57,57,-0.0048010135069489479065,0,0
0.00010336668888292441801,2.7136303894517417312,0.11950677113080793168,0.29461619982914249993,5.5947024083618064338,0.91278160567274946313,2.8649028839803403201,0.22138806541007080564,58,58,-0.0046009710058569908142,0,0
0.00012070992565374774293,2.6642036876312555904,0.1236297352378771669,0.30626489376038718015,5.6111062718850996944,0.9169029637521997067,2.865062180292200722,0.22835636867282177453,59,59,-0.0044009289704263210297,0,0
0.00014141640623521490325,2.6080576192502831212,0.12856987267082509163,0.31862982224413499699,5.6309913481683038228,0.92184166783298637782,2.865281399541760976,0.23664265919586049969,60,60,-0.0042008869349956512451,0,0
0.00016608935086833001094,2.5449340012049233017,0.13447500457992414558,0.33170110560994758853,5.6550708803671945191,0.92774555144375625559,2.865577912250495185,0.24645759046515677837,61,61,-0.0040008444339036941528,0,0
0.00019541543493237917284,2.4748113938401279377,0.14150902599002043725,0.34546271995052668657,5.6841628118021141347,0.93477877776007667343,2.8659707994089766991,0.25802174969870383947,62,62,-0.0038008023984730243683,0,0
0.00023016317875082428074,2.3979882473708888924,0.14984534314656874909,0.35989054235758127787,5.7191609678400077144,0.94311447844153317721,2.8664748807471349679,0.27154987905400013171,63,63,-0.0036007601302117109299,0,0
0.00027117304746672660828,2.3151674803799187075,0.15965342370160823249,0.37494977955657654567,5.7609674988777372917,0.95292182246002232748,2.8670941524830007019,0.28722450808286142943,64,64,-0.0034007178619503974915,0,0
0.00031933536332382975306,2.2275192716365692647,0.1710758088912263386,0.3905918938768588311,5.810368437604215508,0.96434178373545376139,2.8678078447488943858,0.30515719434475768734,65,65,-0.003200675593689084053,0,0
0.00037555213208237560709,2.1366910358214759036,0.18419603611937815368,0.40675137538620503852,5.8678661516317749403,0.97745634526953184551,2.8685629000435550751,0.32534097534970607413,66,66,-0.0030006333254277706146,0,0
0.0004406805044726884381,2.0447249003679410784,0.19900178441749075131,0.42334304732991773212,5.9335109442712292704,0.99225089374486696858,2.8692726351465762669,0.34760331225099289076,67,67,-0.0028005912899971008301,0,0
0.00051545980382190737749,1.9538696816192908656,0.21535505636325205647,0.44026095690587330189,6.0067902337910386024,1.0085873036419974458,2.8698374478082828709,0.37157911010149685671,68,68,-0.0026005490217357873917,0,0
0.00060043096459128759111,1.8663189595762963435,0.23298082724116145337,0.45738007608918740399,6.0866432151144556073,1.0261912761805691563,2.8701754364012961318,0.39671719170530589382,69,69,-0.0024005067534744739532,0,0
0.00069586516510592127775,1.7839281509111983848,0.25148933669288142667,0.47456176680452227812,6.1715664710003244053,1.0446757623651912184,2.8702478245838283222,0.42234061469046091375,70,70,-0.0022004644852131605148,0,0
0.00080172266327987312933,1.7080096146508239041,0.27042695111731357427,0.49166298359353027836,6.2598890082115872247,1.0635899093386960157,2.8700839226204144516,0.44773600721638545652,71,71,-0.0020004222169518470764,0,0
0.00091765911045948512278,1.6392026570400055618,0.28935620583859522625,0.5085478438352678543,6.34994640792714371,1.0824954800323423054,2.8697365116049038392,0.47228203333906221273,72,72,-0.0018003800651058554649,0,0
0.0010430815116208684568,1.5775389855262271777,0.30792030590593955086,0.52509881001226499375,6.4405065675882067211,1.101040202747103347,2.8693248951581304951,0.495515204820476729,73,73,-0.0016003377968445420265,0,0
0.0011772398775087911712,1.5224973019151541997,0.32590337788277801145,0.54122483084290207156,6.5305984475350564722,1.1189976215631642908,2.8688702129340284408,0.51721911191711211764,74,74,-0.001400295644998550415,0,0
0.0013193240401012859813,1.4733145830468876714,0.34321536369083133211,0.55686425455083443659,6.6201383388260710561,1.1362947990777276797,2.8685289444338550879,0.53732659771018032036,75,75,-0.0012002533767372369766,0,0
0.0014685451395549716652,1.4289499621111216854,0.35991334329228430455,0.57198323175717102895,6.7090072723244897901,1.1529583048549369995,2.8681750214122003761,0.55600457916002365977,76,76,-0.0010002111084759235382,0,0
0.0016241654399109827552,1.3880426833098262751,0.37631871045129228204,0.58656890748607370956,6.8010528107600976,1.1693727180979509583,2.868421401403192128,0.57348009411190248308,77,77,-0.00080016889842227101326,0,0
0.001785399795749002946,1.3451404022701956009,0.39466285207946072422,0.60061384951464535931,6.9198485117634733754,1.1877988432969484034,2.871542281935863361,0.59111005398589810955,78,78,-0.00060012668836861848831,0,0
0.0019509043619322828048,1.2902748190381934101,0.42029898169389495743,0.61407365701137406333,7.1391597373893986855,1.2142681821011875876,2.8872070897083896845,0.61016869424503450414,79,79,-0.00040008444921113550663,0,0
0.0021181106963895648086,1.2169263742222258262,0.45843067781194885013,0.62682835740269304825,7.5360066755678047912,1.2540884478920910627,2.9218878150122806758,0.63047966140489331011,80,80,-0.00020004222460556775331,0,0
0.0022829289980472269352,1.1247258224170326724,0.51240356912678564072,0.63868184810674744067,8.1557793451802211848,1.3094093403830042721,2.9700768669814712197,0.65115647266215415101,81,81,0,0,0
0.0024398707584404894649,1.0180122663907607006,0.58384833435236516141,0.64938638303746276659,9.0184311369570551165,1.3805598883228320517,3.0174130249316011287,0.67097715726468154518,82,82,0.00020004222460556775331,0,0
0.0025825797453749594484,0.90436448041825534538,0.67213286730884791442,0.6586806529012197986,10.11921674926430903,1.4667692645645176164,3.0464304904240258054,0.68840959950871283279,83,83,0.00040008444921113550663,0,0
0.0027048372309124882155,0.79311048220461510816,0.77289280058705589482,0.6663413372732269746,11.415075627969606842,1.5648574951877298744,3.0427036200519124165,0.70174471725434184322,84,84,0.00060012668836861848831,0,0
0.0028019610270077063494,0.69426211783334312866,0.87653678210690333383,0.67224409294203901766,12.804618549157694929,1.667180761409208678,3.0040092660777597544,0.70948330913937285302,85,85,0.00080016889842227101326,0,0
0.0028722256766700758265,0.61667170367476953352,0.96800854205885178416,0.67641948937025075939,14.117561147007746669,1.7590205970856940265,2.9442154092847214741,0.7106539845625658991,86,86,0.0010002111084759235382,0,0
0.0029177301637044587325,0.56652125069998537921,1.0323434147592394083,0.67908283561614068979,15.159182130724968118,1.8248288365867211258,2.8943707766087425348,0.70580885738803011975,87,87,0.0012002533767372369766,0,0
0.0029439622427184365498,0.54169349606500305505,1.064338700405226934,0.68060405315256433667,15.817396831597337226,1.8569589991242152482,2.8704206209123550586,0.69740254280980862323,88,88,0.001400295644998550415,0,0
0.0029578323686077936765,0.5319004196728926992,1.0774993554038641008,0.68140428685217779847,16.17477064401332143,1.8704716045166287497,2.8677493238511351237,0.69042668904123694062,89,89,0.0016003377968445420265,0,0
0.0029648826075438050424,0.52641402673324555472,1.0841329791847604813,0.68180997033216361736,16.367638614143654507,1.876736940038967294,2.8638114881280745116,0.68649157456503850927,90,90,0.0018003800651058554649,0,0
0.0029683977273305814024,0.52449657234234270398,1.0871664236315126129,0.68201196643426964528,16.464781796787494983,1.8801608963317222312,2.8658343743562504358,0.68435072981464539765,91,91,0.0020004222169518470764,0,0
