"epsilon","mach_number","pressure","rad_temp","rho","rhoE","rhou","temperature","GlobalNodeId","PedigreeNodeId","Points:0","Points:1","Points:2"
1.6531078881108630225e-05,2.9999333094001459088,0.09916087601827325293,0.18631025991601465885,5.516584648871243779,0.89244788716469325429,2.8645140270771851654,0.18629823973529471837,1,1,-0.016003377735614776611,0,0
1.6531082181194868032e-05,2.9999326733554787516,0.099160913851231255456,0.18631026921425652976,5.5165847291096170579,0.89244791229446918113,2.8645139870149907146,0.18629830810416983522,2,2,-0.015967814251780509949,0,0
1.6531090851811233901e-05,2.999932091211930274,0.099160951517783230136,0.18631029364436543783,5.5165849289021595681,0.89244796266222825576,2.8645140270772699864,0.18629837212299216187,3,3,-0.015932252630591392517,0,0
1.6531104875144574128e-05,2.9999314592843671079,0.09916098909269710493,0.1863103331561336562,5.5165850081964977747,0.89244798753212295495,2.8645139870149107786,0.18629844003894277527,4,4,-0.015896689146757125854,0,0
1.6531124239624381386e-05,2.9999308798415249555,0.099161026589011116994,0.18631038771693173017,5.5165852073711416637,0.89244803772790781693,2.8645140270773445934,0.1862985037587898407,5,5,-0.015861125662922859192,0,0
1.6531148941094647861e-05,2.9999302489327535071,0.099161064097925480376,0.18631045731501011398,5.5165852864336626382,0.89244806252998010176,2.8645139870148366157,0.18629857155856732742,6,6,-0.015825562179088592529,0,0
1.653117898154600601e-05,2.9999296691142571802,0.099161101614677366056,0.18631054195592705591,5.516585485697541813,0.89244811274446544935,2.8645140270774094304,0.1862986353137904838,7,7,-0.015790000557899475098,0,0
1.6531214370309729923e-05,2.9999290361647483749,0.099161139247218407777,0.18631064166591237985,5.5165855652316047042,0.89244813766833974711,2.8645139870147668937,0.18629870332990167148,8,8,-0.015754437074065208435,0,0
1.6531255122802771305e-05,2.9999284529252054909,0.099161176973152076464,0.18631075648833164693,5.5165857652848186987,0.89244818809027059991,2.8645140270775000246,0.18629876745146012329,9,9,-0.015718873590230941772,0,0
1.6531301261743580405e-05,2.9999278148986996406,0.099161214917488985088,0.18631088648711130462,5.5165858459882839426,0.89244821332409696168,2.8645139870146776317,0.18629883601386001968,10,10,-0.01568331010639667511,0,0
1.6531352815909705194e-05,2.9999272252079762779,0.099161253040388905311,0.18631103174323795924,5.5165860475274648422,0.89244826414124789338,2.8645140270775968361,0.1862989008310273753,11,11,-0.015647748485207557678,0,0
1.6531409821375157425e-05,2.9999265790756091121,0.099161291484219107883,0.18631119235824430969,5.5165861300966083647,0.89244828987269742004,2.8645139870145781558,0.18629897026883804334,12,12,-0.0156121840700507164,0,0
1.6531472320280351384e-05,2.9999259799034976304,0.099161330191860200256,0.18631136845074286468,5.5165863338183429576,0.89244834127282191005,2.8645140270776829894,0.18629903611087142434,13,13,-0.015576621517539024353,0,0
1.6531540362090849062e-05,2.9999253226287363461,0.099161369323344586424,0.18631156015997196729,5.51658641895130053,0.89244836769003454968,2.8645139870144999961,0.18629910675402269749,14,14,-0.01554105803370475769,0,0
1.6531614002379486016e-05,2.9999247109295921199,0.099161408804444364784,0.18631176764236392907,5.5165866255557416409,0.89244841986181411286,2.8645140270777798008,0.18629917395182948869,15,15,-0.015505495481193065643,0,0
1.6531693304106414341e-05,2.9999240394529258502,0.099161448813152044957,0.18631199107515067359,5.5165867139557471788,0.89244844715431081994,2.8645139870143787597,0.18629924613272463851,16,16,-0.015469931997358798981,0,0
1.6531778336413347874e-05,2.9999234121505997663,0.099161489258307283778,0.18631223065296587116,5.5165869241502134557,0.89244850028831612665,2.8645140270778925995,0.18629931502050070535,17,17,-0.015434369444847106934,0,0
1.6531869175924919903e-05,2.9999227233743068766,0.099161530336164011024,0.18631248659151061764,5.5165870165295540772,0.89244852864798174252,2.8645139870143148109,0.18629938907566462314,18,18,-0.015398805961012840271,0,0
1.6531965905555047724e-05,2.9999220773468588952,0.099161571938790771252,0.18631275912418948648,5.5165872310315533511,0.89244858293755335854,2.8645140270779592129,0.1862994599925583139,19,19,-0.015363243408501148224,0,0
1.6532068615829710113e-05,2.9999213681199283776,0.099161614281011736804,0.18631304850583635391,5.5165873281147330687,0.89244861255955687529,2.8645139870142393157,0.186299536264283222,20,20,-0.015327679924666881561,0,0
1.6532177403705532875e-05,2.9999207001845427101,0.099161657238288652971,0.18631335500938470129,5.5165875476560222168,0.89244866820181656397,2.8645140270780209413,0.18629960955603042105,21,21,-0.015292117372155189514,0,0
1.6532292373914155497e-05,2.9999199672873779754,0.09916170104432520116,0.18631367892965411404,5.5165876501832897816,0.89244869928554781957,2.8645139870141744787,0.1862996883940352677,22,22,-0.015256553888320922852,0,0
1.6532413637793217254e-05,2.9999192741847720001,0.0991617455581561974,0.18631402058005522293,5.5165878755133039846,0.89244875648233346066,2.8645140270781226377,0.18629976441465234682,23,23,-0.015220990404486656189,0,0
1.6532541314652590865e-05,2.9999185143137112597,0.099161791032653906486,0.18631438029643776488,5.5165879842440670444,0.89244878923235382295,2.864513987014091434,0.1862998461777675141,24,24,-0.015185427851974964142,0,0
1.6532675530618040215e-05,2.9999177926927886872,0.099161837310619088681,0.18631475843383094038,5.5165882161333312794,0.89244884819117109576,2.864514027078228775,0.18629992529122246792,25,25,-0.015149864368140697479,0,0
1.653281642001961239e-05,2.9999170024442691762,0.099161884664401234168,0.18631515537035348018,5.5165883318500963384,0.89244888281821155296,2.8645139870139901817,0.18630001034910445568,26,26,-0.015114301815629005432,0,0
1.6532964124248376977e-05,2.9999162488461106335,0.099161932920748874221,0.18631557150399088996,5.5165885710939388531,0.89244894375322525448,2.8645140270783406855,0.18630009293105512236,27,27,-0.01507873833179473877,0,0
1.6533118793167413552e-05,2.999915424700766664,0.099161982371801779546,0.18631600725656877193,5.5165886946058400042,0.89244898047517573492,2.8645139870138782712,0.18630018166591849615,28,28,-0.015043175779283046722,0,0
1.6533280583981998472e-05,2.9999146355423853549,0.099162032828455079492,0.18631646307056765055,5.5165889420281670752,0.89244904360821764033,2.8645140270784792413,0.18630026810547678506,29,29,-0.01500761229544878006,0,0
1.6533449662673767181e-05,2.9999137738484096261,0.099162084602956071522,0.18631693941316135321,5.5165890741746972381,0.89244908265113054302,2.8645139870137166227,0.18630036091389937103,30,30,-0.014972049742937088013,0,0
1.6533626202884860114e-05,2.9999129454061237432,0.099162137490543325602,0.18631743677307080476,5.51658933063175283,0.89244914821273146899,2.8645140270786080272,0.18630045161543934418,31,31,-0.01493648625910282135,0,0
1.653381038737582225e-05,2.9999120423624350273,0.099162191823909701105,0.18631795566466891056,5.516589472287045659,0.89244918981191778684,2.8645139870136002713,0.18630054891018840713,32,32,-0.014900923706591129303,0,0
1.6534002406924378967e-05,2.9999111707544945382,0.099162247382838603071,0.18631849662487537378,5.5165897386713735884,0.89244925804236396871,2.8645140270787821102,0.18630064429523096603,33,33,-0.01486536022275686264,0,0
1.6534202461807743698e-05,2.9999102223932032629,0.099162304520808264297,0.18631906021732971834,5.5165898907477233237,0.89244930244342912662,2.8645139870135047921,0.18630074650717462492,34,34,-0.014829796738922595978,0,0
1.6534410760716687812e-05,2.999909303562073859,0.099162363002363668185,0.18631964702932896083,5.5165901679921764966,0.89244937359386178333,2.8645140270789268833,0.1863008470163144692,35,35,-0.014794234186410903931,0,0
1.6534627522263086466e-05,2.9999083057302371458,0.099162423202127716881,0.18632025767607127142,5.5165903314445401406,0.89244942105385793862,2.8645139870133879967,0.18630095459639722799,36,36,-0.014758670702576637268,0,0
1.653485297391006856e-05,2.9999073354239769174,0.099162484869628642059,0.18632089279763841549,5.5165906205268582241,0.89244949538745643736,2.8645140270790734327,0.18630106069132187918,37,37,-0.014723108150064945221,0,0
1.6535087353505657976e-05,2.9999062837647025859,0.099162548401001096576,0.18632155306331243949,5.5165907963570717243,0.89244954617604177471,2.8645139870132676485,0.18630117411261998273,38,38,-0.014687544666230678558,0,0
1.6535330908229931956e-05,2.9999052575177231894,0.099162613530989388022,0.18632223916860565782,5.516591098304016505,0.89244962396918603442,2.8645140270791902282,0.18630128627820338738,39,39,-0.014651982113718986511,0,0
1.6535583896155696247e-05,2.9999041474505427907,0.099162680677623959991,0.18632295183965269514,5.5165912875653564384,0.89244967836985067411,2.8645139870131233195,0.18630140603805658839,40,40,-0.014616418629884719849,0,0
1.6535846585213654784e-05,2.9999030605632968083,0.099162749561126167785,0.18632369183029079407,5.5165916034577415772,0.89244975991341091159,2.8645140270793540971,0.18630152478455974663,41,41,-0.014580856077373027802,0,0
1.6536119254781230051e-05,2.9999018872633613775,0.099162820621802913457,0.1863244599265304613,5.5165918072596049626,0.89244981822474489519,2.8645139870129878723,0.18630165140683074831,42,42,-0.014545292593538761139,0,0
1.6536402194666784224e-05,2.9999007347814252711,0.099162893565622439729,0.18632525694368867741,5.5165921382366978065,0.89244990382534472584,2.8645140270795361737,0.1863017772721807519,43,43,-0.014509729109704494476,0,0
1.6536695706727797694e-05,2.9998994931579092693,0.099162968855588617956,0.186326083730941644,5.5165923577497748553,0.89244996636240248034,2.864513987012881735,0.18630191130959922186,44,44,-0.014474166557192802429,0,0
1.6537000103875371571e-05,2.9998982698496101662,0.099163046183691663793,0.18632694116851430954,5.5165927050145384669,0.89245005634380225601,2.8645140270797182502,0.18630204486181595191,45,45,-0.014438603073358535767,0,0
1.6537315711723014585e-05,2.9998969545229878797,0.099163126036065862845,0.18632783017231829836,5.5165929414757775007,0.89245012343947760503,2.8645139870127187542,0.18630218689844896263,46,46,-0.014403040520846843719,0,0
1.6537642867612744934e-05,2.9998956548560560265,0.099163208091031074254,0.18632875169120180492,5.5165933063005407888,0.89245021814405300908,2.8645140270799043236,0.18630232873817698103,47,47,-0.014367477037012577057,0,0
1.6537981922295942464e-05,2.9998942601341336278,0.099163292858291646192,0.18632970671167656262,5.5165935610188947535,0.89245029015059584854,2.8645139870125486681,0.18630247939203123386,48,48,-0.01433191448450088501,0,0
1.6538333238982445763e-05,2.9998928782511504743,0.099163380002828482862,0.18633069625523157598,5.5165939447506922022,0.89245038994083147887,2.8645140270801143778,0.18630263015521209002,49,49,-0.014296351000666618347,0,0
1.653869719505499767e-05,2.9998913981037640397,0.099163470058379485361,0.18633172138315370892,5.5165942191128616301,0.89245046723140109002,2.8645139870123945691,0.18630279008098174498,50,50,-0.0142607884481549263,0,0
1.6539074181142953763e-05,2.9998899277961967869,0.099163562676937239138,0.18633278319390955691,5.5165946231794960042,0.89245057249150328005,2.8645140270803715055,0.18630295044167180518,51,51,-0.014225224964320659637,0,0
1.653946460287191361e-05,2.9998883558284630269,0.099163658416763944548,0.18633388282806381819,5.5165949186560290229,0.89245065546181057137,2.8645139870122475756,0.18630312033364274105,52,52,-0.01418966241180896759,0,0
1.6539868879963751656e-05,2.9998867905091817221,0.099163756917232739885,0.18633502146573416303,5.5165953445722140103,0.89245076659939426289,2.8645140270805966587,0.18630329100700163125,53,53,-0.014154098927974700928,0,0
1.6540287448023277366e-05,2.9998851199332898787,0.099163858761652803886,0.18633620033161232832,5.5165956627241357069,0.89245085566947912614,2.8645139870120814862,0.18630347160211735424,54,54,-0.014118535444140434265,0,0
1.6540720757666346947e-05,2.9998834526075048856,0.099163963577167502095,0.18633742069249664697,5.5165961120985418376,0.89245097311739984836,2.8645140270808400196,0.18630365334755866202,55,55,-0.014082972891628742218,0,0
1.6541169276345541221e-05,2.9998816762127185065,0.099164071972685480238,0.18633868386242150028,5.5165964545840910915,0.89245106873345436682,2.8645139870119016301,0.18630384542867678421,56,56,-0.014047409407794475555,0,0
1.6541633487508333457e-05,2.9998798994470652346,0.099164183563539703981,0.18633999120027272545,5.516596929126319715,0.89245119295170816098,2.8645140270811246808,0.18630403905322848179,57,57,-0.014011846855282783508,0,0
1.6542113892463838182e-05,2.9998780095681536473,0.099164298984805054893,0.18634134411503072704,5.5165972977082464723,0.89245129558804925374,2.8645139870117248826,0.18630424345255264251,58,58,-0.013976283371448516846,0,0
1.6542611009573203538e-05,2.9998761154581234933,0.09916441784046706176,0.1863427440634750909,5.5165977992361634463,0.89245142706577285097,2.8645140270814155592,0.18630444981439645002,59,59,-0.013940720818936824799,0,0
1.6543125376159657021e-05,2.9998741039415515175,0.0991645407923683192,0.18634419255554718342,5.5165981957895073862,0.89245153722693082443,2.8645139870115019498,0.18630466741714790668,60,60,-0.013905157335102558136,0,0
1.6543657547733436457e-05,2.999872084076667722,0.09916466743364293901,0.18634569115215007806,5.5165987262376354749,0.8924516764845944472,2.8645140270817699424,0.18630488742939740887,61,61,-0.013869594782590866089,0,0
1.6544208099947541643e-05,2.9998699422448327212,0.099164798453522579047,0.18634724147063722044,5.5165991527579354425,0.89245179470751878625,2.8645139870112545921,0.18630511917769851382,62,62,-0.013834031298756599426,0,0
1.6544777627859660326e-05,2.9998677876719490598,0.09916493343482155054,0.18634884518271419007,5.5165997141854870023,0.89245194229916713358,2.8645140270821576323,0.18630535381239285431,63,63,-0.013798468746244907379,0,0
1.6545366747936244775e-05,2.9998655062851677933,0.09916507309483417465,0.18635050402006070325,5.5166001727977178604,0.89245206915560371108,2.8645139870110063463,0.18630560070939561346,64,64,-0.013762905262410640717,0,0
1.65459760973540789e-05,2.9998632074691715665,0.099165217006611267037,0.18635221977234109336,5.5166007673977075498,0.89245222567128912328,2.8645140270825675266,0.18630585100176644264,65,65,-0.013727341778576374054,0,0
1.6546606336055468174e-05,2.9998607766852636303,0.09916536591622721053,0.18635399429296706231,5.5166012603654870361,0.89245236177027598146,2.8645139870107620972,0.18630611411604466876,66,66,-0.013691779226064682007,0,0
1.6547258146092287158e-05,2.9998583234673987796,0.099165519387560602249,0.18635582949722470647,5.5166018904742859519,0.89245252783863637802,2.8645140270829547724,0.1863063811690449656,67,67,-0.013656215742230415344,0,0
1.6547932233735288048e-05,2.9998557327986170584,0.09916567819623506308,0.18635772736818578821,5.5166024202098453699,0.89245267382917181642,2.8645139870105102986,0.1863066616392718422,68,68,-0.013620653189718723297,0,0
1.6548629328863664358e-05,2.9998531143519100439,0.099165841897592754695,0.18635968995495949541,5.5166030883178098776,0.89245285012022002036,2.8645140270834019702,0.18630694662841168485,69,69,-0.013585089705884456635,0,0
1.6549350187131700216e-05,2.9998503526192052959,0.099166011297598818941,0.18636171937876089277,5.5166036573923511455,0.89245300669408245131,2.8645139870103006885,0.18630724566833209432,70,70,-0.013549527153372764587,0,0
1.6550095589407153637e-05,2.9998475574014187295,0.099166185943751983256,0.18636381783129599143,5.5166043661542794041,0.89245319392209665477,2.8645140270839175578,0.1863075498467986757,71,71,-0.013513963669538497925,0,0
1.6550866343998624523e-05,2.9998446126856124216,0.099166366673204650595,0.18636598758099637285,5.5166049773090533037,0.89245336181684919996,2.8645139870100364554,0.18630786875053598206,72,72,-0.013478401117026805878,0,0
1.6551663286146291355e-05,2.9998416283887410216,0.099166553026359405276,0.18636823097154697759,5.5166057295560859686,0.89245356074351722686,2.8645140270844589026,0.18630819345467500292,73,73,-0.013442837633192539215,0,0
1.6552487280313714683e-05,2.9998384879784820711,0.099166745872446157573,0.18637055042829675511,5.5166063857147875638,0.89245374074577377144,2.8645139870097469093,0.18630853360238114336,74,74,-0.013407275080680847168,0,0
1.6553339219734640615e-05,2.9998353014752097145,0.099166944745561938501,0.1863729484569387751,5.5166071844665536261,0.89245395218350220823,2.8645140270850517616,0.1863088802575202374,75,75,-0.013371711596846580505,0,0
1.6554220028773203923e-05,2.9998319518115876825,0.099167150547974008967,0.18637542765010725598,5.516607888747918409,0.89245414513234033738,2.8645139870094573631,0.18630924312139618415,76,76,-0.013336148113012313843,0,0
1.6555130662530830206e-05,2.999828549097940833,0.099167362808317116585,0.18637799068622093457,5.516608737225745962,0.89245436994779647755,2.8645140270857041287,0.18630961324807432389,77,77,-0.013300585560500621796,0,0
1.6556072109279012779e-05,2.9998249757154575867,0.09916758246290839629,0.18638064033627699256,5.516609492957066152,0.8924545767384103323,2.8645139870091504974,0.1863100003987870068,78,78,-0.013265022076666355133,0,0
1.6557045390130704541e-05,2.9998213418499370952,0.099167809035826531838,0.18638337946286914759,5.5166103945979596546,0.89245481585630137555,2.8645140270863818088,0.18631039561937307036,79,79,-0.013229459524154663086,0,0
1.6558051561550130812e-05,2.9998175293134381469,0.099168043498526717294,0.18638621102719038491,5.5166112053299194429,0.89245503744393617218,2.8645139870088915934,0.18631080873290531419,80,80,-0.013193896040320396423,0,0
1.6559091715093244884e-05,2.9998136483518500484,0.099168285371488848479,0.18638913808823734386,5.5166121638016427653,0.89245529185103900094,2.8645140270871416455,0.18631123077867756122,81,81,-0.013158333487808704376,0,0
1.656016697999948282e-05,2.9998095801894875123,0.099168535662455245538,0.1863921638100345668,5.5166130333232823446,0.89245552925510096554,2.864513987008640683,0.18631167164362189004,82,82,-0.013122770003974437714,0,0
1.6561278523006198865e-05,2.9998054351154981312,0.099168793889358106131,0.18639529146103794854,5.5166140525403895012,0.89245580000457092051,2.864514027087950776,0.18631212236231628476,83,83,-0.013087207451462745667,0,0
1.6562427551027481681e-05,2.9998010937469810067,0.099169061097427665952,0.18639852442159354773,5.5166149848958125901,0.89245605431309760203,2.8645139870083586864,0.18631259288767371141,84,84,-0.013051643967628479004,0,0
1.6563615311047895758e-05,2.9997966663982702507,0.099169336803177396411,0.1864018661835538937,5.5166160690367256336,0.89245634252906225203,2.8645140270888247436,0.18631307425151380497,85,85,-0.013016080483794212341,0,0
1.656484309289385463e-05,2.9997920330583238702,0.099169622090612905008,0.18640532035798523802,5.5166170685428062015,0.89245661490345995492,2.8645139870080575939,0.18631357647501151087,86,86,-0.012980517931282520294,0,0
1.6566112229212323083e-05,2.9997873040475817596,0.099169916476023606267,0.18640889067501112408,5.516618222067863897,0.89245692178590163568,2.8645140270897679891,0.18631409058930051281,87,87,-0.012944954447448253632,0,0
1.6567424098340646093e-05,2.9997823587043961346,0.099170221083573067977,0.18641258099178309449,5.5166192933331306136,0.89245721346601059043,2.864513987007784479,0.18631462668625778378,88,88,-0.012909391894936561584,0,0
1.6568780124376259637e-05,2.9997773073349245365,0.099170535430601211568,0.18641639529256673335,5.5166205210041132645,0.89245754029599289048,2.8645140270908302504,0.18631517579855175204,89,89,-0.012873828411102294922,0,0
1.6570181780151277282e-05,2.9997720286031870351,0.099170860682890660254,0.1864203376969918724,5.5166216689485292335,0.89245785260545718032,2.8645139870075269073,0.18631574809134202053,90,90,-0.012838265858590602875,0,0
