"epsilon","mach_number","pressure","rad_temp","rho","rhoE","rhou","temperature","GlobalNodeId","PedigreeNodeId","Points:0","Points:1","Points:2"
1.6531026258957395365e-05,2.9999333077465690778,0.099160876076219206521,0.18631011164894681342,5.5165846458080540771,0.89244788676107933423,2.8645140253372112227,0.18629823994760622008,1,1,-0.016003377735614776611,0,0
1.6531039742533867241e-05,2.9999319955610883603,0.099160955930917463186,0.1863101496400223489,5.5165848883383690193,0.8924479548515448224,2.8645139887552377722,0.18629838178401980642,2,2,-0.015927171334624290466,0,0
1.6531077509650348134e-05,2.9999307374408727966,0.099161035368815986235,0.18631025605182710558,5.5165852366632233128,0.89244804604517002922,2.8645140253373595485,0.18629851926461202249,3,3,-0.015850964933633804321,0,0
1.6531139499080514958e-05,2.9999294320818150617,0.099161114787454665565,0.18631043071150008017,5.5165854776358420608,0.89244811369139609436,2.8645139887550841173,0.18629866033435685257,4,4,-0.015774758532643318176,0,0
1.6531225787915824576e-05,2.9999281661457222192,0.099161194696836152396,0.18631067383567498363,5.5165858277699042489,0.89244820534851454497,2.8645140253375243056,0.18629879863961584796,5,5,-0.015698552131652832031,0,0
1.6531336595305489519e-05,2.9999268379347148183,0.099161275518790364947,0.1863109860410100127,5.5165860740071401835,0.89244827438982166079,2.8645139887549349034,0.18629894216801834439,6,6,-0.015622345730662345886,0,0
1.6531472277167699129e-05,2.9999255346723572302,0.099161357728475466033,0.18631136832927186475,5.5165864327342921669,0.89244836833910723417,2.8645140253376863981,0.18629908450473775527,7,7,-0.015546138398349285126,0,0
1.6531633331598483974e-05,2.9999241540903578418,0.099161441782961337599,0.18631182210255425868,5.5165866910222938202,0.89244844060448003109,2.8645139887548198843,0.18629923369925671661,8,8,-0.015469931997358798981,0,0
1.653182039515537234e-05,2.9999227838075888108,0.099161528132876278208,0.18631234915277891662,5.5165870651690473991,0.89244853868553097875,2.8645140253379013373,0.18629938329365219873,9,9,-0.015393725596368312836,0,0
1.65320342499084313e-05,2.9999213208116395357,0.099161617281293093495,0.18631295168152631203,5.5165873424144047377,0.89244861603592118282,2.8645139887546573476,0.18629954141814003554,10,10,-0.015317519195377826691,0,0
1.6532275821287993264e-05,2.9999198529510837652,0.099161709664578892576,0.18631363229392802761,5.5165877390059776531,0.89244872014135889771,2.8645140253380629858,0.18629970158969058613,11,11,-0.015241312794387340546,0,0
1.6532546186788661511e-05,2.9999182762944545111,0.099161805842649358711,0.18631439402313737519,5.5165880423928159715,0.89244880451188834947,2.8645139887545325585,0.1862998720382586515,12,12,-0.015165106393396854401,0,0
1.6532846575409790719e-05,2.9999166787516715615,0.099161906248039485834,0.18631524032869059559,5.5165884688105961686,0.89244891662974334956,2.8645140253383254425,0.18630004627400531536,13,13,-0.01508889906108379364,0,0
1.6533178378060246565e-05,2.9999149552921595685,0.09916201150865949776,0.18631617512574791262,5.5165888059587286918,0.89244901007245835967,2.8645139887544073254,0.18630023264618592038,14,14,-0.015012692660093307495,0,0
1.65335431486571667e-05,2.9999131937120186997,0.099162122064074958994,0.18631720278810318114,5.5165892701018073296,0.89244913232973688277,2.8645140253386238705,0.1863004246771796657,15,15,-0.01493648625910282135,0,0
1.6533942616316438598e-05,2.999911287692627937,0.099162238621888054713,0.1863183281824284665,5.5165896492326416123,0.8924492370582238765,2.8645139887542527823,0.18630063085606640705,16,16,-0.014860279858112335205,0,0
1.6534378688212943468e-05,2.9999093247299604137,0.099162361640244736649,0.18631955667621613593,5.5165901596879862723,0.89244937176670557921,2.8645140253389560492,0.186300844737680521,17,17,-0.01478407345712184906,0,0
1.6534853463679809302e-05,2.9999071970156356848,0.099162491918928064027,0.18632089417736544257,5.5165905898000335839,0.89244949020335362366,2.8645139887540955748,0.18630107497283787676,18,18,-0.014707867056131362915,0,0
1.6535369238972517187e-05,2.9999049915442852488,0.099162629947137467812,0.1863223471474483306,5.5165911560243641176,0.89244963990857617553,2.8645140253393810426,0.1863013151706838233,19,19,-0.014631659723818302155,0,0
1.6535928523440247666e-05,2.9999025987986600583,0.099162776630401003319,0.18632392264708680374,5.5165916470825111517,0.89244977473554509828,2.8645139887539903256,0.18630157416756773503,20,20,-0.01455545332282781601,0,0
1.6536534046377587837e-05,2.9999001050515428091,0.099162932502638079235,0.18632562835504751231,5.5165922795997950345,0.89244994227001350762,2.8645140253398495567,0.18630184565089988324,21,21,-0.014479246921837329865,0,0
1.6537188775474389565e-05,2.9998973988359081133,0.099163098590041548475,0.18632747261997625876,5.5165928427425612313,0.89245009648502260369,2.8645139887538921819,0.18630213866872150086,22,22,-0.014403040520846843719,0,0
1.6537895925983593317e-05,2.9998945654579727282,0.099163275486415805582,0.18632946448594764344,5.5165935533622416642,0.89245028502688283911,2.8645140253403855723,0.18630244701329209955,23,23,-0.014326834119856357574,0,0
1.6538658981702735704e-05,2.9998914912336420713,0.099163464355169220199,0.18633161375124968062,5.5165942011311139836,0.8924504620049744652,2.8645139887537887091,0.18630277997337646445,24,24,-0.014250626787543296814,0,0
1.6539481706735466131e-05,2.9998882602282792575,0.099163665866993128128,0.18633393100114781227,5.5165950031905426343,0.89245067514325204794,2.8645140253410721343,0.18630313147586671785,25,25,-0.014174420386552810669,0,0
1.654036816930934078e-05,2.999884756241219641,0.099163881341050877372,0.18633642767455074751,5.5165957497866360271,0.89245087870583006406,2.8645139887537207635,0.18630351108279041839,26,26,-0.014098213985562324524,0,0
1.6541322756462886024e-05,2.9998810617879483331,0.099164111544082222949,0.18633911610489295452,5.5165966584228476322,0.89245112051361086269,2.8645140253419629772,0.18630391288923006665,27,27,-0.014022007584571838379,0,0
1.6542350201061632964e-05,2.9998770578134328346,0.099164357971914321443,0.18634200959566604716,5.5165975199957273389,0.89245135500617100988,2.8645139887537149903,0.18630434676717269604,28,28,-0.013945801183581352234,0,0
1.6543455599803269784e-05,2.999872824932835691,0.099164621509065312144,0.18634512247048487521,5.5165985524524367989,0.89245163012324135732,2.8645140253430207977,0.18630480701795407161,29,29,-0.013869594782590866089,0,0
1.6544644443858242078e-05,2.9998682408537922228,0.099164903851739052976,0.18634847015863800768,5.5165995474275311139,0.89245190050341849375,2.8645139887538264567,0.18630530386511509611,30,30,-0.013793387450277805328,0,0
1.6545922640653773294e-05,2.999863383892294344,0.099165206026957899987,0.18635206925558139845,5.5166007234040499441,0.8924522142300977956,2.8645140253443250877,0.18630583185957866332,31,31,-0.013717181049287319183,0,0
1.6547296548638065392e-05,2.9998581280831086993,0.099165529958273296307,0.18635593761985114192,5.5166018728541219573,0.89245252616769343845,2.8645139887540334023,0.18630640162374936808,32,32,-0.013640974648296833038,0,0
1.6548773003381344677e-05,2.9998525489872918115,0.099165876843476469249,0.18636009444542914193,5.5166032149026671405,0.89245288457171356722,2.8645140253459522306,0.18630700800765057079,33,33,-0.013564768247306346893,0,0
1.6550359357045106861e-05,2.9998465164698395746,0.099166248864235584382,0.18636456037157284049,5.5166045429725532045,0.89245324456291452719,2.8645139887544472934,0.18630766208653667948,34,34,-0.013488561846315860748,0,0
1.6552063509426362474e-05,2.9998401028151993053,0.099166647421464679257,0.18636935756872152758,5.5166060769517004658,0.89245365460146341974,2.8645140253479879355,0.18630835906621526221,35,35,-0.013412355445325374603,0,0
1.6553893952807245373e-05,2.9998331731504883635,0.099167074990137271673,0.18637450986303544243,5.5166076113435424944,0.89245407009941080112,2.8645139887551493985,0.18630911053651622034,36,36,-0.013336148113012313843,0,0
1.6555859808668995156e-05,2.9998257958850738092,0.099167533211410099914,0.18638004283776327119,5.5166093669378994946,0.89245453975890032261,2.8645140253505672057,0.18630991212406580737,37,37,-0.013259941712021827698,0,0
1.6557970878704614666e-05,2.9998178307577809676,0.099168024893854123114,0.18638598397454936295,5.5166111394671570878,0.89245501932328352712,2.864513988756197449,0.18631077600395537508,38,38,-0.013183735311031341553,0,0
1.6560237688043801544e-05,2.9998093416157876057,0.099168551961498097036,0.18639236277246490348,5.5166131507828248814,0.89245555777956975252,2.8645140253537766384,0.18631169829830646067,39,39,-0.013107528910040855408,0,0
1.6562671543334176995e-05,2.9998001820634256909,0.09916911760274579879,0.18639921090844085994,5.5166151980167468238,0.89245611124832180394,2.8645139887577535376,0.18631269184857507382,40,40,-0.013031322509050369263,0,0
1.6565284583449868631e-05,2.9997904105963582033,0.099169724073476309134,0.18640656237648131621,5.5166175042653211591,0.89245672905066597558,2.8645140253578897926,0.18631375335818772809,41,41,-0.012955116108059883118,0,0
1.6568089845687609631e-05,2.9997798738280661013,0.099170374994994828222,0.18641445366991366006,5.5166198682551863541,0.89245736773703510103,2.8645139887599389006,0.18631489642806520202,42,42,-0.012878908775746822357,0,0
1.6571101325082514646e-05,2.999768623994889083,0.099171073011386667861,0.18642292394365575503,5.5166225145393656959,0.89245807701943447032,2.8645140253631700133,0.18631611844164042147,43,43,-0.012802702374756336212,0,0
1.6574334049926969163e-05,2.9997564997357595296,0.099171822237829110325,0.18643201522134725256,5.5166252436634444223,0.89245881393862336317,2.8645139887631239084,0.18631743386626820058,44,44,-0.012726495973765850067,0,0
1.6577804150990263607e-05,2.9997435459835646299,0.099172625771443118081,0.18644177258393518359,5.5166282818798935139,0.89245962866272199321,2.8645140253699703514,0.18631884087895200786,45,45,-0.012650289572775363922,0,0
1.658152894775383185e-05,2.9997295922723101746,0.099173488291370723302,0.18645224440516403042,5.5166314318115903248,0.89246047879238654676,2.8645139887675901136,0.18632035493642865043,46,46,-0.012574083171784877777,0,0
1.6585527029030464773e-05,2.9997146750298160356,0.099174413422401616613,0.18646348257017930639,5.5166349216901595653,0.89246141502695930381,2.8645140253787126916,0.18632197513999981808,47,47,-0.012497876770794391632,0,0
1.6589818351522763471e-05,2.999698613385666679,0.099175406488248199488,0.18647554274331085145,5.5166385565127278312,0.89246239560698015225,2.8645139887738220175,0.18632371807717271195,48,48,-0.012421669438481330872,0,0
1.659442433356641343e-05,2.9996814338797452848,0.099176471727289064462,0.1864884846208731406,5.5166425668118410641,0.89246347184944918585,2.8645140253899876726,0.18632558392404893755,49,49,-0.012345463037490844727,0,0
1.6599367967864150849e-05,2.9996629437429445098,0.099177615200536306528,0.18650237223567722733,5.5166467603005822085,0.89246460272683603154,2.8645139887823796165,0.18632759056155123734,50,50,-0.012269256636500358582,0,0
1.6604673930340602649e-05,2.9996431580354689928,0.099178841858901675699,0.18651727424872949213,5.5166513701834221095,0.89246584027336306466,2.864514025404625297,0.18632973941387326322,51,51,-0.012193050235509872437,0,0
1.6610368709186278769e-05,2.9996218703710741948,0.099180158607381219138,0.18653326429545202814,5.5166562072819722573,0.89246714429927032075,2.8645139887941080126,0.18633204984248616376,52,52,-0.012116843834519386292,0,0
1.6616480731114222969e-05,2.9995990824979799072,0.099181571223378242608,0.18655042132154667223,5.5166615078999976518,0.8924685676706902715,2.8645140254236136634,0.1863345247192526033,53,53,-0.012040636502206325531,0,0
1.6623040509173177802e-05,2.9995745724360216578,0.099183087578667228357,0.18656882997648888134,5.5166670864201030611,0.89247007115749743544,2.8645139888101240899,0.18633718510155203307,54,54,-0.011964430101215839386,0,0
1.6630080789044513178e-05,2.9995483265127727002,0.099184714408359436755,0.18658858099942723929,5.5166731827368096219,0.89247170858974389507,2.8645140254483143494,0.18634003553872602321,55,55,-0.011888223700225353241,0,0
1.6637636718457320031e-05,2.9995201048799611243,0.09918646069236784768,0.18660977166613393341,5.516679615314902918,0.89247344183724164335,2.8645139888318600363,0.18634309903195839242,56,56,-0.011812017299234867096,0,0
1.6645746016564770851e-05,2.9994898760174120156,0.099188334274648626288,0.18663250623144253537,5.5166866282060231796,0.89247532584603395112,2.8645140254805778746,0.18634638207274212274,57,57,-0.011735810898244380951,0,0
1.6654449168223831637e-05,2.9994573795929508897,0.099190345405959792768,0.18665689643648081253,5.5166940445565071371,0.89247732374731791882,2.8645139888612600743,0.18634990989139432749,58,58,-0.011659604497253894806,0,0
1.6663789619951313028e-05,2.999422563445194978,0.099192503213191035583,0.18668306201479714646,5.5167021132278284412,0.89247949177831642498,2.8645140255227383719,0.18635369122639186545,59,59,-0.011583397164940834045,0,0
1.6673814002825509945e-05,2.9993851437489333911,0.099194819405277356861,0.18671113126734883991,5.5167106627383439843,0.892481794517513638,2.864513988900928787,0.18635775386566041933,60,60,-0.0115071907639503479,0,0
1.6684572359052834203e-05,2.9993450444871920801,0.099197304592538296242,0.18674124164010999505,5.5167199475107464579,0.89248428969504445263,2.8645140255779710792,0.18636210914571632591,61,61,-0.011430984362959861755,0,0
1.6696118397818005805e-05,2.9993019548804760177,0.099199972157771737491,0.18677354037491719629,5.5167298022304454008,0.8924869435507166715,2.8645139889543012046,0.18636678779025117603,62,62,-0.01135477796196937561,0,0
1.6708509757102645059e-05,2.9992557713576912803,0.099202834425663743989,0.18680818516695735232,5.5167404877471852842,0.89248981553996420413,2.8645140256504411091,0.18637180413812517998,63,63,-0.011278571560978889465,0,0
1.6721808297465656849e-05,2.9992061522043744759,0.099205906701202939413,0.18684534490014470531,5.5167518458286819438,0.89249287381033182154,2.86451398902596166,0.18637719228414295625,64,64,-0.01120236515998840332,0,0
1.6736080404457723275e-05,2.9991529620402417322,0.099209203289444949925,0.18688520039341458001,5.5167641447492998807,0.89249617981022133506,2.8645140257456422894,0.18638297003514495143,65,65,-0.01112615782767534256,0,0
1.6751397326067103721e-05,2.999095823638158187,0.099212741703507467683,0.18692794522977154714,5.5167772344131096318,0.89249970387864885346,2.8645139891220070538,0.18638917535826743377,66,66,-0.011049951426684856415,0,0
1.6767835521882231607e-05,2.9990345649149139362,0.099216538535166612367,0.18697378660070373968,5.5167913916679935937,0.89250350976526893199,2.8645140258708532421,0.18639583006452881131,67,67,-0.01097374502569437027,0,0
1.6785477050805162441e-05,2.998968767867076668,0.099220613834935300623,0.18702294623833370935,5.5168064757684360799,0.89250757032728056384,2.8645139892505415702,0.1864029765704776076,68,68,-0.010897538624703884125,0,0
1.6804409974044235836e-05,2.9988982180811172285,0.099224986834146863823,0.18707566136744083196,5.5168227734592454325,0.89251195197065491538,2.8645140260356725115,0.18641064130877607607,69,69,-0.01082133222371339798,0,0
1.6824728800694710489e-05,2.9988224507266409979,0.099229680499856059983,0.18713218575017315226,5.5168401547438499222,0.89251663044700246807,2.8645139894223792254,0.18641887180976668414,70,70,-0.010745125822722911835,0,0
1.6846534952712821561e-05,2.9987412025903510404,0.099234717109322773121,0.1871927907550184067,5.516858917788080241,0.89252167522750835982,2.8645140262528694386,0.18642769983878965112,71,71,-0.010668918490409851074,0,0
1.6869937277110081731e-05,2.998653955061294063,0.099240122982725900713,0.18725776652318085191,5.5168789449550876824,0.89252706539142545594,2.8645139896518068134,0.18643717880485913274,72,72,-0.010592712089419364929,0,0
1.689505258228985761e-05,2.9985603886911880167,0.099245923911271030637,0.18732742316324338394,5.5169005475876495836,0.89253287394610625327,2.8645140265392634582,0.18644734662472106645,73,73,-0.010516505688428878784,0,0
1.6922006226920612444e-05,2.9984599230994044561,0.099252150070993555575,0.18740209204742833138,5.5169236222640831713,0.89253908379731994316,2.8645139899578491161,0.18645826346663169071,74,74,-0.010440299287438392639,0,0
1.6950932738429918086e-05,2.9983521740605816319,0.099258831306043029952,0.18748212713947765007,5.5169484955267558135,0.8925457720309547538,2.864514026917289069,0.18646997434141654448,75,75,-0.010364092886447906494,0,0
1.698197649013794805e-05,2.998236490248867625,0.099266002227203248287,0.18756790642741713593,5.5169750803059267596,0.89255292595369950526,2.864513990365798346,0.18648254719029613846,76,76,-0.010287885554134845734,0,0
1.7015292414328908154e-05,2.9981124128520231231,0.099273697352297449181,0.18765983339014466469,5.5170037206738404834,0.89256062735463681523,2.8645140274165168393,0.18649603520348614905,77,77,-0.010211679153144359589,0,0
1.7051046780968350685e-05,2.9979792090651469216,0.099281956393447334808,0.1877583385707797814,5.5170343483743362611,0.89256886860281292595,2.864513990909209884,0.1865105152621094331,78,78,-0.010135472752153873444,0,0
1.7089418019639192716e-05,2.9978363342284750637,0.099290819256983089969,0.18786388118434738104,5.5170673276936943452,0.89257773690982100678,2.8645140280761576257,0.18652604998523267255,79,79,-0.010059266351163387299,0,0
1.7130597615167947437e-05,2.9976829619705762653,0.099300331523925436383,0.18797695083205515076,5.5171026120248445324,0.89258723046868193585,2.8645139916324970919,0.18654272653712766772,80,80,-0.0099830599501729011536,0,0
1.7174791054857264499e-05,2.9975184488653470183,0.099310539312277262836,0.18809806924801136807,5.5171405889607818551,0.89259744274190022661,2.8645140289480774953,0.18656061840398596718,81,81,-0.0099068535491824150085,0,0
1.7222218858644656076e-05,2.9973418611120883348,0.099321494955774414226,0.18822779214953264115,5.517181236810001721,0.89260837862341491089,2.8645139925948086557,0.18657982457931657216,82,82,-0.009830646216869354248,0,0
1.7273117670525906442e-05,2.9971524417060941836,0.099333251731966568099,0.18836671111472688689,5.5172249700343272139,0.89262013878048762638,2.8645140301011045025,0.18660043107193421963,83,83,-0.009754439815878868103,0,0
1.7327741443508276321e-05,2.9969491335293052536,0.099345869744940223933,0.18851545555687349021,5.5172717956211432266,0.89263273581773328047,2.8645139938744805796,0.18662255048395334778,84,84,-0.009678233414888381958,0,0
1.7386362696944840991e-05,2.9967310490269287726,0.099359410523249536151,0.18867469471661063585,5.5173221590053893593,0.89264627870552959443,2.8645140316263422164,0.18664628325214663307,85,85,-0.009602027013897895813,0,0
1.7449273879570991434e-05,2.996496989567668745,0.099373943113009219341,0.18884513973922764651,5.5173761001886711952,0.8926607889217396119,2.864513995575439953,0.18667175763489135543,86,86,-0.009525820612907409668,0,0
1.7516788817710599794e-05,2.9962459176175966213,0.09938953855047652497,0.18902754575481431343,5.5174341003075682011,0.89267638500453028172,2.8645140336444763207,0.18669909068948481456,87,87,-0.0094496142119169235229,0,0
1.758924428315509586e-05,2.9959764722113346735,0.099406276172782581657,0.18922271402568024978,5.5174962373727947096,0.89269309864349699613,2.8645139978355254051,0.18672842868668118599,88,88,-0.0093734068796038627625,0,0
1.7667001660916757406e-05,2.9956874436143832163,0.099424237970767243011,0.18943149407491294278,5.5175630336705747681,0.89271105940069250817,2.8645140363154304453,0.18675990782704945947,89,89,-0.0092972004786133766174,0,0
1.7750448752685586083e-05,2.9953772847266564305,0.099443515125638551333,0.18965478585690970226,5.5176346109757554714,0.89273031071835651229,2.8645140008375742369,0.18679369510438800783,90,90,-0.0092209940776228904724,0,0
