"epsilon","mach_number","pressure","rad_temp","rho","rhoE","rhou","temperature","GlobalNodeId","PedigreeNodeId","Points:0","Points:1","Points:2"
1.6531008341392716102e-05,2.9999332838501056031,0.09916087608026701028,0.18631006116471218736,5.5165845923377831994,0.89244787491344002017,2.8645139886265535978,0.18629824176093290333,1,1,-0.016003377735614776611,0,0
1.6531028449680238568e-05,2.9999317234156945844,0.099160974283340030944,0.18631011782148854117,5.5165850098548689928,0.89244798506057632093,2.8645140254662688761,0.18629841215989900727,2,2,-0.015909241512417793274,0,0
1.6531085434801578933e-05,2.9999301241762372783,0.09916107189469806904,0.18631027838153746412,5.516585318678216332,0.89244807071494691719,2.8645139886263537576,0.18629858511781297037,3,3,-0.015815103426575660706,0,0
1.6531179271095779192e-05,2.9999285664651229588,0.099161169909312132931,0.18631054277175171374,5.5165857355882454982,0.89244818066145903401,2.8645140254664789303,0.18629875518316471594,4,4,-0.015720965340733528137,0,0
1.6531310261768647111e-05,2.9999269417683342986,0.099161269078737096505,0.18631091184510156777,5.5165860502811838728,0.89244826786143538477,2.8645139886261552498,0.18629893087002999397,5,5,-0.015626827254891395569,0,0
1.6531479029568786946e-05,2.9999253312228444379,0.099161370348030533628,0.18631138735433014353,5.5165864793557490842,0.89244838105026758068,2.8645140254667116331,0.1862991066392463424,6,6,-0.015532691031694412231,0,0
1.6531686525057714049e-05,2.9999236256107493226,0.099161474512149669347,0.18631197197519774877,5.5165868126673158756,0.89244847323205522827,2.8645139886259736173,0.18629929108106790814,7,7,-0.015438552945852279663,0,0
1.653193402293593077e-05,2.999921906388542947,0.099161582496243627638,0.18631266929604886617,5.5165872667442181765,0.89244859312270286011,2.8645140254669834157,0.18629947862129161984,8,8,-0.01534441579133272171,0,0
1.6532223136066536074e-05,2.9999200631413960316,0.099161695169225544388,0.18631348385721527294,5.5165876317143238694,0.89244869379961444533,2.8645139886258381701,0.18629967797992505463,9,9,-0.015250277705490589142,0,0
1.653255581741961677e-05,2.9999181771641505456,0.099161813466154963281,0.1863144211563562691,5.5165881241460992257,0.89244882398903446763,2.8645140254672871727,0.186299883600013233,10,10,-0.015156140550971031189,0,0
1.6532934379919832056e-05,2.999916136346319373,0.099161938360805695902,0.18631548770420658379,5.5165885345546561425,0.89244893687256376946,2.8645139886257116046,0.18630010438550465013,11,11,-0.015062003396451473236,0,0
1.653336150417795069e-05,2.9999140213254507081,0.09916207082886069335,0.18631669104614928534,5.5165890796627117254,0.89244908121751842511,2.864514025467657099,0.18630033485053865139,12,12,-0.014967865310609340668,0,0
1.6533840264432617356e-05,2.9999117177737573137,0.099162211981267373018,0.18631803983504827138,5.5165895504921813597,0.89244921034193613885,2.8645139886255703843,0.18630058413967556796,13,13,-0.014873728156089782715,0,0
1.6534374142438711445e-05,2.9999093051443792568,0.099162362866999878563,0.18631954387006929852,5.516590164041828892,0.89244937308695404532,2.864514025468120284,0.18630084689540760134,14,14,-0.014779590070247650146,0,0
1.6534967059977074655e-05,2.9999066663301028335,0.099162524768992232893,0.18632121418789956979,5.5165907119690364979,0.8924495229417410691,2.8645139886254704642,0.18630113256396743648,15,15,-0.014685452915728092194,0,0
1.6535623399477476271e-05,2.999903879023404496,0.099162698845219263144,0.18632306312040597396,5.5165914116816630042,0.8924497088570447767,2.8645140254687215808,0.18630143597879228468,16,16,-0.014591315761208534241,0,0
1.6536348043784495943e-05,2.9999008227168473262,0.099162886589048912511,0.18632510440613356262,5.5165920556147431952,0.89244988453149931562,2.8645139886254327166,0.18630176695521907804,17,17,-0.014497177675366401672,0,0
1.6537146404315378965e-05,2.9998975726975349865,0.099163089307405458128,0.18632735326899912964,5.5165928617341659645,0.89245009906549210843,2.8645140254694894111,0.18630212058764900052,18,18,-0.014403040520846843719,0,0
1.6538024469002744835e-05,2.9998940043582611459,0.099163308747412456934,0.18632982655259469618,5.5165936234128700733,0.8924503064102955463,2.864513988625444707,0.18630250713650237104,19,19,-0.014308902435004711151,0,0
1.6538988839031791925e-05,2.9998901898471013183,0.099163546410408157095,0.18633254282277852965,5.5165945593442584638,0.89245055586152566285,2.8645140254704357652,0.18630292203683057606,20,20,-0.014214765280485153198,0,0
1.6540046786138684837e-05,2.9998859996567328601,0.099163804346835651704,0.18633552252800758553,5.5165954640226955163,0.89245080167247570202,2.8645139886255779338,0.18630337608105790315,21,21,-0.014120628125965595245,0,0
1.6541206299245640613e-05,2.9998815019499223133,0.09916408430489061232,0.18633878812942603065,5.5165965570643837879,0.89245109338655792541,2.8645140254717009753,0.18630386513681018723,22,22,-0.014026490040123462677,0,0
1.6542476152585884543e-05,2.9998765613933295882,0.099164388695676716767,0.18634236429123293699,5.5165976342972866675,0.89245138561620451778,2.8645139886259167739,0.18630440062907915877,23,23,-0.013932352885603904724,0,0
1.6543865963867627279e-05,2.9998712411787633592,0.0991647195753338484,0.18634627804269990325,5.5165989164881494844,0.89245172821387142026,2.8645140254733640894,0.18630497896512912548,24,24,-0.013838215731084346771,0,0
1.6545386275031947852e-05,2.9998653990666714897,0.099165079782528822716,0.18635055900346739199,5.5166002010461081539,0.89245207621777378204,2.8645139886265051921,0.18630561231984982262,25,25,-0.013744077645242214203,0,0
1.6547048623937510482e-05,2.9998590921221492955,0.09916547175298476291,0.1863552395828713959,5.5166017101557631719,0.89245247986125852968,2.8645140254756027431,0.18630629776569299083,26,26,-0.01364994049072265625,0,0
1.6548865639946877423e-05,2.9998521699318660971,0.099165898831443166639,0.18636035524607669212,5.5166032430974718537,0.8924528946864822565,2.8645139886274839647,0.18630704836515057932,27,27,-0.013555802404880523682,0,0
1.6550851131544372911e-05,2.9998446820723185802,0.099166363917640068526,0.186365944757180102,5.5166050237889558971,0.89245337139237401747,2.8645140254785901313,0.186307862003816882,28,28,-0.013461665250360965729,0,0
1.6553020199401364718e-05,2.9998364684624210241,0.099166870954943878158,0.18637205049325533679,5.5166068537240473546,0.89245386611719124126,2.8645139886290831299,0.18630875279410297196,29,29,-0.013367528095841407776,0,0
1.6555389342832794758e-05,2.9998275695803844343,0.099167423406908594696,0.18637871873895264785,5.5166089589257545356,0.89245443012552361228,2.8645140254826224613,0.18630971960965886369,30,30,-0.013273390009999275208,0,0
1.6557976593527147372e-05,2.9998178139113704788,0.099168025924956340611,0.18638600005687444572,5.5166111435062568091,0.89245502026070133716,2.8645139886315607036,0.18631077780471547167,31,31,-0.013179252855479717255,0,0
1.6560801644328156172e-05,2.99980723092811985,0.099168682654737688731,0.18639394964283390044,5.5166136360351067935,0.89245568847159950643,2.864514025488102078,0.18631192744825597618,32,32,-0.013085114769637584686,0,0
1.6563886007446646919e-05,2.9997956355902464232,0.099169399085369175362,0.18640262776252858323,5.5166162437222574511,0.89245639243568886112,2.8645139886353025993,0.18631318536368365879,33,33,-0.012990977615118026733,0,0
1.656725316974072822e-05,2.9997830441017909742,0.099170180184996500894,0.18641210017828177548,5.5166191982078505163,0.89245718492696035629,2.864514025495593863,0.18631455306134181438,34,34,-0.012896840460598468781,0,0
1.657092877997396626e-05,2.9997692554157553424,0.099171032434239872466,0.18642243866376070893,5.5166223103683549311,0.89245802461015222296,2.8645139886409465291,0.1863160491035383004,35,35,-0.012802702374756336212,0,0
1.6574940835580864187e-05,2.9997542697790242627,0.099171961790565615891,0.18643372151492895727,5.5166258155369654048,0.8924589652516778937,2.8645140255058927359,0.18631767673431137711,36,36,-0.012708565220236778259,0,0
1.6579319904421815647e-05,2.9997378671922767523,0.099172975908777910581,0.18644603415659205536,5.5166295289324356332,0.89245996668544380626,2.8645139886493184989,0.18631945657521720161,37,37,-0.012614427134394645691,0,0
1.6584099348985726046e-05,2.9997200287496950111,0.099174081934029378882,0.18645946975246247002,5.5166336903211901088,0.89246108386922795574,2.8645140255200938206,0.18632139395158026085,38,38,-0.012520289979875087738,0,0
1.6589315589143864565e-05,2.9997005119997646183,0.099175288912441511568,0.18647412991962936113,5.5166381200674425855,0.89246227802229216586,2.8645139886615846869,0.18632351192495205661,39,39,-0.012426152825355529785,0,0
1.6595008370887560098e-05,2.9996792750840719499,0.099176605412841636888,0.18649012545509763283,5.516643063251649437,0.89246360553047643371,2.8645140255397607554,0.18632581831543479356,40,40,-0.012332014739513397217,0,0
1.6601221077832404357e-05,2.9996560489389731963,0.099178042130874818905,0.18650757717688501436,5.5166483463385125319,0.89246502925545201368,2.8645139886794916961,0.18632833907732684886,41,41,-0.012237877584993839264,0,0
1.6608001052950923298e-05,2.9996307642338444488,0.099179609339876489971,0.18652661678715062865,5.5166542207706710244,0.89246660729278903812,2.8645140255670908935,0.1863310850175532718,42,42,-0.012143739499151706696,0,0
1.6615399968063612252e-05,2.9996031203473170201,0.099181319692168312674,0.18654738786152214036,5.5166605202495508919,0.89246830445237734786,2.8645139887054691386,0.18633408552170238615,43,43,-0.012049602344632148743,0,0
1.6623474208645681985e-05,2.9995730151002288899,0.099183185499872900115,0.18657004687196981907,5.5166675038278061294,0.89247018087480001203,2.8645140256052052941,0.1863373549691677844,44,44,-0.01195546519011259079,0,0
1.6632285312307246866e-05,2.9995401104328980324,0.099185221737457418545,0.18659476434913774279,5.5166750137954263522,0.89247220368199364771,2.8645139887429968972,0.18634092681758246401,45,45,-0.011861327104270458221,0,0
1.6641900428678740344e-05,2.999504264922154384,0.099187443153780502358,0.18662172609140936785,5.5166833183009682529,0.89247443545873350601,2.8645140256584937788,0.18634481971594107907,46,46,-0.011767189949750900269,0,0
1.6652392839982564968e-05,2.9994650960771966908,0.099189867480401039401,0.18665113452840581543,5.5166922698320082219,0.89247684607197474982,2.8645139887970962889,0.18634907195642283484,47,47,-0.011673052795231342316,0,0
1.666384251029192891e-05,2.9994224156238389334,0.099192512376668956486,0.18668321014615277265,5.516702147401522538,0.89247950102587403354,2.8645140257330421463,0.18635370728750139113,48,48,-0.011578914709389209747,0,0
1.6676336703794041456e-05,2.9993757883252127883,0.099195398848934968061,0.18671819308341219834,5.516712815610938847,0.89248237344784198122,2.864513988874789252,0.18635876974336115786,49,49,-0.011484777554869651794,0,0
1.6689970640440973492e-05,2.9993249700086672682,0.099198548031102035116,0.18675634480636119084,5.5167245664434725327,0.89248553232715166494,2.864514025837663791,0.18636428915992075961,50,50,-0.011390639469027519226,0,0
1.6704848230475311232e-05,2.9992694628055329709,0.099201984820521879604,0.18679794997286525149,5.5167372788947695028,0.8924889546651189054,2.8645139889861388482,0.18637031639340520539,51,51,-0.011296502314507961273,0,0
1.6721082856731344708e-05,2.9992089558860484111,0.099205734497256989335,0.18684331839339701764,5.5167512604264903331,0.8924927136097837721,2.8645140259846226805,0.18637688854334505395,52,52,-0.01120236515998840332,0,0
1.6738798247527266822e-05,2.9991428769980914559,0.099209826583200752537,0.18689278720146387802,5.516766407144102935,0.8924967907666547795,2.8645139891454589609,0.18638406457349293577,53,53,-0.011108227074146270752,0,0
1.6758129409727814718e-05,2.9990708358645741249,0.099214291304205726174,0.18694672314028695781,5.5167830449738870513,0.89250126424454656604,2.8645140261914012747,0.18639189024717595089,54,54,-0.011014089919626712799,0,0
1.6779223666308706544e-05,2.9989921718833798536,0.099219163679947902645,0.18700552507995024665,5.5168010903646740317,0.89250612112254068542,2.8645139893730644509,0.18640043416572246726,55,55,-0.010919951833784580231,0,0
1.6802241768873034887e-05,2.998906400129238925,0.09922447983413167083,0.187069626671128586,5.5168208912636558239,0.89251144542513471958,2.8645140264826838283,0.1864097524230513836,56,56,-0.010825814679265022278,0,0
1.6827359131189210332e-05,2.998812755056249113,0.099230281323768598778,0.18713949925052830725,5.5168423883132016172,0.89251723073991962032,2.8645139896977016569,0.18641992507916629873,57,57,-0.010731677524745464325,0,0
1.6854767155299628102e-05,2.9987106390310356296,0.099236611303989558097,0.18721565490298561207,5.5168659557173116426,0.89252356814408184693,2.8645140268933775296,0.18643102054271132317,58,58,-0.010637539438903331757,0,0
1.6884674698271298518e-05,2.9985991618559046934,0.099243519106693961485,0.18729864979558208393,5.5168915628965482512,0.89253045896574079165,2.8645139901603320354,0.18644313249982144565,59,59,-0.010543402284383773804,0,0
1.6917309652508123708e-05,2.9984775917426960135,0.099251056268051793263,0.18738908768674891747,5.5169196153560360329,0.89253800268846472665,2.8645140274729548047,0.1864563440355504198,60,60,-0.010449264198541641235,0,0
1.6952920690009603042e-05,2.9983448904457832285,0.099259281368123522538,0.18748762372492436268,5.5169501167546100007,0.89254620984760113522,2.8645139908190264677,0.18647076504173706879,61,61,-0.010355127044022083282,0,0
1.6991779145188387476e-05,2.9982001665666304646,0.099268255930918564145,0.1875949684365836867,5.5169835099062582984,0.8925551899447563553,2.8645140282913676977,0.18648649609073006395,62,62,-0.01026098988950252533,0,0
1.7034181089314154154e-05,2.9980422060523577166,0.099278049538538332142,0.18771189201596269469,5.5170198392110503249,0.89256496446855693172,2.8645139917560937803,0.18650366634993653658,63,63,-0.010166851803660392761,0,0
1.708044957327122177e-05,2.9978699276988995948,0.099288735615776807508,0.18783922881149539563,5.5170595919473406354,0.89257565485738954436,2.8645140294476689746,0.1865223972242368855,64,64,-0.010072714649140834808,0,0
1.7130937094816529436e-05,2.9976819087324728663,0.099300396834627630005,0.18797788211706367711,5.5171028610014589688,0.8925872956316940332,2.8645139930883924961,0.18654284080958843939,65,65,-0.00997857656329870224,0,0
1.7186028269553213548e-05,2.9974768423531013006,0.099313120797987500255,0.18812882915607076484,5.5171501866387711033,0.89260002245083402972,2.8645140310821832763,0.18656514332412671431,66,66,-0.0098844394087791442871,0,0
1.7246142765441393053e-05,2.9972530580717422488,0.099327005753120103937,0.18829312635961045763,5.5172017194571640886,0.89261388534134789019,2.8645139949815874303,0.18658948413881532025,67,67,-0.0097903022542595863342,0,0
1.7311738483124312817e-05,2.9970089811078990394,0.099342156191998570725,0.1884719148168818581,5.5172580628608915987,0.89262903690275829938,2.8645140333935463772,0.18661603902136020272,68,68,-0.0096961641684174537659,0,0
1.7383315046135541175e-05,2.9967426471035047975,0.099358688895613556102,0.18866642598902019778,5.5173194361482549297,0.89264554561291653556,2.8645139976704121487,0.18664501978861675058,69,69,-0.009602027013897895813,0,0
1.7461417586960024034e-05,2.996452163157612425,0.09937672847202862203,0.18887798755112022997,5.5173865179560035443,0.89266358424837977115,2.8645140366629591178,0.18667663739228462783,70,70,-0.0095078898593783378601,0,0
1.7546640897976336206e-05,2.9961352164784642582,0.099396413757371612774,0.18910802943959972855,5.5174596093733372371,0.89268324324387704483,2.8645140014876431245,0.18671114224584087204,71,71,-0.0094137517735362052917,0,0
1.7639633937691720381e-05,2.9957895368057685381,0.099417893316841449147,0.18935808995223948892,5.5175394786769320632,0.89270471940582374337,2.864514041288559465,0.18674878718662177302,72,72,-0.0093196146190166473389,0,0
1.7741104767103170616e-05,2.9954123984959508675,0.099441332232891574416,0.18962982195964142584,5.5176265243425728357,0.89272812929812872529,2.8645140069047809739,0.18678986853950615976,73,73,-0.0092254765331745147705,0,0
1.7851825911909192024e-05,2.9950010840476584129,0.099466907599401369056,0.18992499905367110635,5.5177216214523854276,0.89275369834267559455,2.8645140478339174983,0.1868346889967096025,74,74,-0.0091313393786549568176,0,0
1.7972640232201980855e-05,2.9945523790413863807,0.099494815733126851232,0.19024552166880140391,5.5178252844511153086,0.89278157419800396877,2.8645140145896865747,0.18688359949164395912,75,75,-0.0090372022241353988647,0,0
1.8104467301701933574e-05,2.9940630364502620608,0.099525267697066696626,0.19059342297614728645,5.5179385156799565237,0.89281201635871398903,2.8645140570966649562,0.18693696204549256623,76,76,-0.0089430641382932662964,0,0
1.8248310386119870867e-05,2.9935292637737531685,0.099558496977937352423,0.190970874559595577,5.5180619676963065245,0.89284520948674517271,2.8645140254880754327,0.18699519253801033525,77,77,-0.0088489269837737083435,0,0
1.8405264030241183266e-05,2.9929471877862572349,0.09959475508158269208,0.19138019164533279226,5.5181967944749938937,0.89288145364326376718,2.8645140702054932014,0.18705872357887692869,78,78,-0.0087547888979315757751,0,0
1.8576522352624251971e-05,2.9923123331173213657,0.099634319727194525784,0.19182383786589879415,5.5183438130767674679,0.89292097752398003063,2.8645140409385776437,0.18712804827799051077,79,79,-0.0086606517434120178223,0,0
1.8763388066428028102e-05,2.991620087068677325,0.099677490565674986556,0.19230442930159061254,5.5185043581621373576,0.89296412948299641599,2.8645140887569948696,0.18720368320992200606,80,80,-0.0085665145888924598694,0,0
1.8967282336135705636e-05,2.990865168804591967,0.099724597950715157535,0.19282473775386177461,5.5186794427522798401,0.89301119061337974614,2.8645140628353980006,0.18728621330478822937,81,81,-0.008472376503050327301,0,0
1.9189755499213576067e-05,2.9900420938598992748,0.099775998840525140232,0.19338769296961050292,5.5188706168257422036,0.89306256675338291373,2.8645141150090052129,0.18737625498602694663,82,82,-0.0083782393485307693481,0,0
1.9432498775154563375e-05,2.9891446330176565382,0.099832086217063811806,0.1939963837518156875,5.5190791268671590686,0.89311860134122189603,2.8645140938576010292,0.18747450232474222043,83,83,-0.0082841012626886367798,0,0
1.9697357003307861391e-05,2.9881662761478180457,0.09989328524261804898,0.19465405766254467723,5.5193067794654018243,0.89317976863087389372,2.8645141521529846607,0.18758169044444683582,84,84,-0.0081899641081690788269,0,0
1.9986342546696121681e-05,2.9870996797728248673,0.099960063411750801898,0.19536411924927910011,5.5195550992885200614,0.89324648623500157996,2.8645141377922311854,0.18769864310734490909,85,85,-0.008095826953649520874,0,0
2.0301650417670651018e-05,2.9859371299310377701,0.10003292704719049522,0.19613012650688399496,5.5198261987797110351,0.89331930982155172138,2.8645142046977474237,0.18782623649486174244,86,86,-0.0080016888678073883057,0,0
2.0645674779702250933e-05,2.9846699773780867027,0.10011243228465363519,0.19695578552481010637,5.520121934127355523,0.89339874524018070279,2.8645141999891028384,0.18796544842400286779,87,87,-0.0079075517132878303528,0,0
2.1021026897946659738e-05,2.9832890992808622777,0.10019918200766378402,0.1978449430657974184,5.5204447823708262533,0.893485445023736502,2.8645142790090316609,0.18811732262929584114,88,88,-0.0078134136274456977844,0,0
2.1430554712598083502e-05,2.9817843209889347555,0.10029383778376499414,0.19880157707529941269,5.5207969948491131262,0.89358001997030123142,2.8645142880003757746,0.18828301984180570439,89,89,-0.0077192764729261398315,0,0
2.1877364127034718141e-05,2.9801448765621931791,0.10039711735539455506,0.19982978493600944692,5.5211814832868455483,0.89368323783687397821,2.8645143840676072777,0.18846378271624111833,90,90,-0.0076251388527452945709,0,0
