"epsilon","mach_number","pressure","rad_temp","rho","rhoE","rhou","temperature","GlobalNodeId","PedigreeNodeId","Points:0","Points:1","Points:2"
1.6531020088679758146e-05,2.9999332920506045497,0.099160876049737792237,0.18631009426367897697,5.5165846108300025108,0.89244787872811448537,2.8645140008622718142,0.18629824107908329878,1,1,-0.016003377735614776611,0,0
1.6531035594977406503e-05,2.9999319143076244032,0.099160961969082403455,0.18631013795394649191,5.5165849456004574236,0.89244796889794542061,2.8645140132303423819,0.18629839119443092343,2,2,-0.015921309590339660645,0,0
1.653107921703577814e-05,2.9999305287162831846,0.099161047304042057582,0.18631026086251481488,5.5165852460587325723,0.89244804997253268652,2.8645140008622127503,0.18629854137059254082,3,3,-0.015839241445064544678,0,0
1.6531150896915610402e-05,2.9999291570681387853,0.099161132830638293312,0.18631046282566585126,5.5165855794422338221,0.89244813974028913695,2.8645140132303965608,0.18629869079486813255,4,4,-0.015757173299789428711,0,0
1.6531250766216116154e-05,2.9999277589407697953,0.09916121892755686007,0.18631074421341620173,5.5165858827959741717,0.89244822156742575903,2.8645140008621652328,0.18629884230474241802,5,5,-0.015675103291869163513,0,0
1.6531379143143460345e-05,2.9999263564165774554,0.099161306352713238232,0.18631110592124397463,5.5165862232912701302,0.8924483132243274941,2.8645140132304582892,0.18629899505572616869,6,6,-0.015593035146594047546,0,0
1.6531536533781228117e-05,2.9999249089510082733,0.099161395492251308559,0.1863115493736449968,5.5165865380007295116,0.89244839808446307927,2.864514000862141252,0.18629915189838672229,7,7,-0.01551096700131893158,0,0
1.6531723631677560613e-05,2.999923438669767517,0.099161487101322665083,0.18631207652293532706,5.5165868940863367342,0.89244849391552616424,2.8645140132305337843,0.18629931198335292208,8,8,-0.015428897924721240997,0,0
1.6531941321633570826e-05,2.9999219046586822479,0.099161581588869104897,0.18631268985988025388,5.5165872287053376866,0.89244858411358873873,2.8645140008621461369,0.1862994782011676842,9,9,-0.015346829779446125031,0,0
1.653219068177468813e-05,2.999920328842668571,0.099161679722404347248,0.18631339241947303398,5.516587609066346154,0.89244868645876862523,2.864514013230621714,0.18629964972410592572,10,10,-0.015264760702848434448,0,0
1.65324729898567813e-05,2.9999186696905253413,0.09916178194899991083,0.18631418779863181956,5.5165879724681810004,0.89244878438507058149,2.8645140008621292615,0.18629982950956797128,11,11,-0.015182692557573318481,0,0
1.6532789727854773162e-05,2.9999169486790711048,0.099161889063859892657,0.18631508016904288483,5.5165883862232227841,0.89244889570039165338,2.864514013230761158,0.18630001677834243101,12,12,-0.015100623480975627899,0,0
1.6533142590853044192e-05,2.9999151234063345939,0.099162001567901975063,0.18631607430210675447,5.516588787829769025,0.89244900389233394744,2.8645140008621439165,0.18630021458225889952,13,13,-0.015018555335700511932,0,0
1.6533533494251101143e-05,2.9999132146439828617,0.099162120299950543001,0.18631717558911881083,5.5165892447632334239,0.89244912681252608344,2.8645140132309121483,0.18630042221854578588,14,14,-0.01493648625910282135,0,0
1.6533964585371885764e-05,2.9999111788523431521,0.099162245831306727872,0.18631839007383177442,5.5165896947828478858,0.89244924801869129904,2.8645140008621545746,0.18630064286245570648,15,15,-0.014854418113827705383,0,0
1.6534438253451945645e-05,2.9999090358246309762,0.099162379061349281706,0.18631972448043396251,5.516590205589991136,0.89244938542313867469,2.8645140132311079917,0.18630087591734550978,16,16,-0.014772349037230014801,0,0
1.6534957144170149914e-05,2.9999067405967361211,0.099162520649522439831,0.18632118625428478742,5.5165907152705537797,0.89244952267142996227,2.8645140008622069772,0.18630112471303697519,17,17,-0.014690280891954898834,0,0
1.6535524172660361633e-05,2.9999043116867460945,0.09916267157414153377,0.1863227835983452263,5.5165912918202879567,0.89244967775495831486,2.8645140132313899883,0.18630138879123933626,18,18,-0.014608211815357208252,0,0
1.6536142541235639489e-05,2.9999017023925254044,0.099162832602216838263,0.18632452552284242686,5.516591873723674766,0.89244983442650782646,2.8645140008623313221,0.18630167167040490028,19,19,-0.014526143670082092285,0,0
1.6536815755736539494e-05,2.9998989296297255969,0.099163004811278612771,0.18632642189101239483,5.5165925293461892664,0.89245001077684482649,2.8645140132317306048,0.18630197306614676434,20,20,-0.014444074593484401703,0,0
1.6537547646803998479e-05,2.9998959446098996118,0.099163189097475776257,0.18632848347866268202,5.5165931976510202972,0.89245019068751263447,2.8645140008624618844,0.18630229672337103586,21,21,-0.014362006448209285736,0,0
1.6538342389958029881e-05,2.9998927622802322723,0.099163386660234040249,0.18633072203030928704,5.5165939474578298274,0.89245039237136780663,2.8645140132321431636,0.18630264257135090156,22,22,-0.014279937371611595154,0,0
1.6539204530858106311e-05,2.9998893313748693501,0.099163598549064077559,0.18633315032983813198,5.5165947182982417729,0.89245059986288177711,2.8645140008627123507,0.18630301462392426237,23,23,-0.014197869226336479187,0,0
1.6540139009597074147e-05,2.9998856644590170539,0.099163826110904684796,0.1863357822683607834,5.5165955795411605322,0.89245083152261583948,2.8645140132327120419,0.18630341306894046549,24,24,-0.014115800149738788605,0,0
1.6541151190483157219e-05,2.9998817073458150517,0.099164070576105448063,0.18633863292743138573,5.5165964713886106452,0.89245107156539238424,2.864514000863052523,0.18630384223734711147,25,25,-0.014033732004463672638,0,0
1.654224689113475928e-05,2.9998774697476040529,0.099164333468298546115,0.18634171866021498332,5.516597463867471518,0.89245133852870728308,2.8645140132334270255,0.18630430262671604513,26,26,-0.013951662927865982056,0,0
1.6543432417425157216e-05,2.9998728940502008555,0.099164616230035904088,0.18634505718900043481,5.5165984979665454446,0.89245161683902995975,2.8645140008635991968,0.18630479894009627229,27,27,-0.013869594782590866089,0,0
1.6544714598077955809e-05,2.999867986573713452,0.099164920595061434305,0.18634866770157668125,5.516599644494514898,0.89245192524419925117,2.8645140132343622774,0.18630533204337998421,28,28,-0.013787525705993175507,0,0
1.6546100825537088125e-05,2.9998626856954309083,0.099165248254138443906,0.18635257096510132735,5.5166008453609141071,0.89245224841828840745,2.8645140008643354967,0.18630590707484287472,29,29,-0.01370545756071805954,0,0
1.6547599096892388041e-05,2.9998569937226609028,0.099165601189583785224,0.18635678943991840217,5.5166021722993647813,0.89245260535799320056,2.8645140132356385898,0.18630652533611571919,30,30,-0.013623388484120368958,0,0
1.6549218061576483069e-05,2.9998508443548144164,0.099165981381837964292,0.18636134741220200528,5.5166035682935330442,0.8924529810263250873,2.8645140008653871,0.18630719247341989697,31,31,-0.013541320338845252991,0,0
1.6550967069598692511e-05,2.9998442351698382247,0.099166391106207049666,0.18636627112783163418,5.5166051061674270528,0.8924533947133089784,2.8645140132373176911,0.18630791030197568769,32,32,-0.013459251262247562408,0,0
1.6552856227129745202e-05,2.9998370944161081297,0.099166832680717367787,0.18637158894663666264,5.516606730156474292,0.89245383171869263617,2.8645140008668077414,0.18630868505995346052,33,33,-0.013377183116972446442,0,0
1.6554896453193399897e-05,2.9998294141130332768,0.09916730872506868133,0.18637733149937754651,5.5166085143665579693,0.89245431167729760702,2.864514013239547463,0.18630951916626056764,34,34,-0.013295114040374755859,0,0
1.6557099544383821422e-05,2.9998211161629151356,0.099167821950340864778,0.18638353186687739438,5.5166104044902981585,0.89245482028092293358,2.8645140008687985933,0.18631041954828003737,35,35,-0.013213045895099639893,0,0
1.6559478241361736187e-05,2.999812186065776487,0.099168375380206050251,0.18639022576364630557,5.5166124761372179464,0.89245537756883897007,2.8645140132425477297,0.18631138933303503791,36,36,-0.01313097681850194931,0,0
1.6562046304161725943e-05,2.9998025383399045118,0.099168972183134543319,0.18639745174570662711,5.5166146766956538627,0.89245596968905605006,2.8645140008715674895,0.18631243624992643859,37,37,-0.013048908673226833344,0,0
1.6564818590068396305e-05,2.9997921508511717903,0.099169615855909984403,0.18640525142495134592,5.5166170835360910374,0.89245661715452939688,2.8645140132465494176,0.18631356425527778597,38,38,-0.012966839596629142761,0,0
1.6567811141216808751e-05,2.9997809295292507947,0.09917031009907760486,0.18641366971005640663,5.5166196460195404683,0.89245730664395317433,2.8645140008753489091,0.18631478201145088014,39,39,-0.012884771451354026794,0,0
1.6571041275688990304e-05,2.9997688433107154715,0.099171058962881822318,0.18642275505628799759,5.5166224435766837431,0.89245805922443943725,2.8645140132519082421,0.18631609444489319327,40,40,-0.012802702374756336212,0,0
1.6574527689396038985e-05,2.9997557881378291711,0.099171866766692165496,0.18643255974455666402,5.5166254278626958296,0.89245886219187275934,2.8645140008806126986,0.18631751130302659503,41,41,-0.012720634229481220245,0,0
1.6578290562542691061e-05,2.9997417225130034169,0.099172738207595423354,0.18644314017208804546,5.5166286807157458583,0.89245973726099547818,2.864514013259066072,0.18631903864609850041,42,42,-0.012638565152883529663,0,0
1.6582351678110845365e-05,2.9997265307652281052,0.099173678324656594496,0.18645455717541487006,5.5166321564596225713,0.89246067244552085285,2.8645140008877998383,0.18632068748342359155,43,43,-0.012556497007608413696,0,0
1.6586734546196840826e-05,2.9997101592130444025,0.099174692570419914484,0.18646687636810779787,5.5166359397442015222,0.89246169021655263887,2.8645140132686370826,0.18632246519941053631,44,44,-0.012474427931010723114,0,0
1.6591464541800925029e-05,2.9996924786821277387,0.099175786820948338973,0.18648016851432536178,5.5166399879969736375,0.89246277942263452232,2.8645140008976563983,0.18632438427090958211,45,45,-0.012392359785735607147,0,0
1.6596569049956666443e-05,2.9996734212724986968,0.099176967410600336272,0.18649450992066965438,5.5166443891496923513,0.89246396341773259753,2.8645140132815472001,0.18632645362794042487,46,46,-0.012310290709137916565,0,0
1.6602077625978156486e-05,2.9996528421089339034,0.099178241188886046009,0.1865099828678248306,5.5166491042395389144,0.89246523202130534358,2.8645140009111664803,0.18632868745409175704,47,47,-0.012228222563862800598,0,0
1.6608022164783223831e-05,2.9996306567060875281,0.099179615519037381266,0.18652667606455497484,5.5166542250276915382,0.89246660961741752782,2.8645140132989257431,0.18633109648270385073,48,48,-0.012146153487265110016,0,0
1.6614437087270152768e-05,2.9996067019320693525,0.099181098382785159995,0.18654468514595670681,5.5166597167498654386,0.89246808715480263619,2.8645140009296023997,0.18633369688242679141,49,49,-0.012064085341989994049,0,0
1.6621359537797126486e-05,2.9995808739632527917,0.09918269834337931079,0.18656411319865146003,5.5166656756338445788,0.89246969021898103769,2.8645140133223141454,0.18633650148982472405,50,50,-0.011982016265392303467,0,0
1.6628829600965022674e-05,2.9995529884384750652,0.099184424699552520277,0.18658507133524918076,5.5166720717993262824,0.89247141107225846923,2.8645140009547871429,0.18633952878249923635,51,51,-0.0118999481201171875,0,0
1.6636890531867758538e-05,2.9995229189933323433,0.099186287413792512124,0.18660767930089272593,5.5166790066822022354,0.89247327670103571151,2.8645140133538435911,0.18634279404932493907,52,52,-0.011817879043519496918,0,0
1.6645589008261087177e-05,2.9994904565801139285,0.09918829731689940421,0.18663206613466293282,5.5166864560840869203,0.89247528089572225607,2.8645140009891045807,0.18634631845379923121,53,53,-0.011735810898244380951,0,0
1.6654975398957207904e-05,2.9994554485687241474,0.099190466002497770792,0.1866583708687883647,5.5166945275123264736,0.89247745227576069649,2.8645140133963482576,0.18635012014342125508,54,54,-0.011653741821646690369,0,0
1.6665104057177774967e-05,2.9994176572037249962,0.099192806083804180295,0.18668674328889164893,5.516703203379424103,0.8924797864093748645,2.8645140010358476346,0.18635422340633228666,55,55,-0.011571673676371574402,0,0
1.6676033633348572282e-05,2.9993768992566143261,0.099195331055558069733,0.18671734473834961099,5.5167125982693718811,0.89248231381932485728,2.8645140134537760979,0.1863586497216477289,56,56,-0.01148960459977388382,0,0
1.6687827416386787484e-05,2.9993329035880296196,0.099198055604799065255,0.18675034899044326564,5.5167227022866693886,0.89248503214228658287,2.8645140010994794011,0.18636342701281891077,57,57,-0.011407536454498767853,0,0
1.6700553698178052461e-05,2.9992854513324425092,0.099200995441676848019,0.18678594317149108117,5.5167336382623863855,0.89248797411901337195,2.8645140135313007512,0.18636858064115174871,58,58,-0.011325467377901077271,0,0
1.6714286170655175557e-05,2.9992342325286571736,0.099204167666312265128,0.18682432875905777281,5.5167454052523900998,0.89249113979302374666,2.8645140011860359408,0.18637414275984412471,59,59,-0.011243399232625961304,0,0
1.6729104350433894697e-05,2.9991789868151195186,0.099207590570171463873,0.18686572263851025655,5.5167581356972643647,0.8924945644893729213,2.8645140136360924821,0.18638014325331317411,60,60,-0.011161330156028270721,0,0
1.674509404082793359e-05,2.9991193590868325813,0.099211284061383825383,0.18691035824237353657,5.5167718390701763198,0.89249825105232649669,2.8645140013037311277,0.18638661919640267528,61,61,-0.011079262010753154755,0,0
1.6762347826508453615e-05,2.9990550406744982403,0.099215269438742190178,0.1869584867557665675,5.5167866590080407718,0.89250223781774729037,2.8645140137777880263,0.18639360574272445525,62,62,-0.010997192934155464172,0,0
1.6780965611097871073e-05,2.9989856239807828331,0.099219569878140637109,0.18701037841263945527,5.5168026171081852027,0.89250653088921139133,2.8645140014636840675,0.1864011456941243039,63,63,-0.010915124788880348206,0,0
1.6801055193332848741e-05,2.9989107441112068386,0.099224210181675071007,0.18706632386598803786,5.5168198700516484223,0.89251117210993247131,2.8645140139694373893,0.18640928034188425366,64,64,-0.010833055712282657623,0,0
1.6822732892620634787e-05,2.9988299324363159037,0.099229217328238639162,0.18712663565689219292,5.5168384535472014818,0.89251617137663141754,2.8645140016808996464,0.18641805915226564161,65,65,-0.010750987567007541656,0,0
1.6846124220062971534e-05,2.9987427586365780208,0.09923462020065675071,0.18719164976528132605,5.5168585394722162718,0.89252157461801928662,2.8645140142287472962,0.18642753056511049414,66,66,-0.010668918490409851074,0,0
1.6871364606383081329e-05,2.99864868312924715,0.099240450203918043059,0.18726172726718934292,5.5168801799606601577,0.89252739614538278978,2.8645140019759476324,0.18643775180217883602,67,67,-0.010586850345134735107,0,0
1.6898600183350423253e-05,2.9985471994830481535,0.099246740973818720066,0.1873372560808864995,5.516903564591989273,0.8925336866459655516,2.8645140145797016729,0.18644877962851030828,68,68,-0.010504781268537044525,0,0
1.6927988630839363075e-05,2.9984376856399514999,0.09925352906683393428,0.18741865282627240274,5.5169287646202560538,0.8925404655691172584,2.864514002376522317,0.18646068029125104082,69,69,-0.010422713123261928558,0,0
1.6959700086731033594e-05,2.9983195466482497338,0.099260853654329947449,0.18750636477906393318,5.5169559902448437327,0.89254778914413490654,2.8645140150546470892,0.1864735202500898692,70,70,-0.010340644046664237976,0,0
1.6993918132598765221e-05,2.9981920645986939178,0.099268757288753048384,0.18760087194338415095,5.5169853349787043584,0.89255568280072961063,2.8645140029201923149,0.18648737625550898533,71,71,-0.010258575901389122009,0,0
1.7030840853109940138e-05,2.9980545416172148521,0.099277285588109998038,0.18770268922297952963,5.517017033038840168,0.89256420922236268112,2.864514015697603444,0.18650232605564048827,72,72,-0.010176506824791431427,0,0
1.707068198300896951e-05,2.9979061484236910751,0.099286488083864948839,0.18781236871336265404,5.5170512038518175757,0.89257340079959590629,2.8645140036579359588,0.1865184586242135123,73,73,-0.01009443867951631546,0,0
1.7113672140464200621e-05,2.9977460675151084146,0.09929641790128615475,0.18793050209321104926,5.5170881096098520757,0.89258332773193072018,2.8645140165681866051,0.18653586485254922134,74,74,-0.010012369602918624878,0,0
1.7160060161706655916e-05,2.9975733402430595476,0.099307132695214725415,0.18805772313533003492,5.5171278999091644124,0.89259403051211638758,2.8645140046588717375,0.18655464793901752052,75,75,-0.0099303014576435089111,0,0
1.7210114536739545295e-05,2.9973870101079502781,0.099318694332834120408,0.18819471031286352791,5.5171708695261161282,0.89260558809181134166,2.864514017746992991,0.18657491407634183012,76,76,-0.0098482323810458183289,0,0
1.7264124962270399318e-05,2.9971859682365340483,0.099331169924462073273,0.18834218951822570554,5.5172172031840407413,0.89261805039458796962,2.8645140060165639184,0.18659678301622636964,77,77,-0.0097661642357707023621,0,0
1.7322404012810129517e-05,2.9969690966964512846,0.099344631516382800318,0.18850093686687199868,5.5172672336111361346,0.89263150656313172693,2.8645140193433360487,0.18662037876386011748,78,78,-0.0096840951591730117798,0,0
1.7385288947500112864e-05,2.9967351122385781359,0.099359157224965549693,0.18867178159952838201,5.5173211864314621877,0.89264601749834004973,2.8645140078579025555,0.18664584033352682457,79,79,-0.009602027013897895813,0,0
1.7453143654972334516e-05,2.9964827095290655912,0.099374830948466871816,0.18885560905034987078,5.5173794385771239845,0.8926616842087868875,2.8645140215052569133,0.18667331246411966728,80,80,-0.0095199579373002052307,0,0
1.7526360755427183776e-05,2.996210403003033651,0.099391743614092337156,0.1890533636895996572,5.5174422632976591885,0.89267858037272451721,2.8645140103547350741,0.1867029565840405414,81,81,-0.0094378897920250892639,0,0
1.7605363863819576293e-05,2.9959166698976331666,0.099409992919180775739,0.18926605220245645844,5.5175100890115240659,0.89269682081405699048,2.8645140244331246393,0.18673494156382414166,82,82,-0.0093558207154273986816,0,0
1.769061003520810388e-05,2.9955997900439408355,0.09942968470233927436,0.18949474660623519262,5.5175832444271977195,0.89271649408344777576,2.8645140137398623636,0.1867694549114685687,83,83,-0.0092737525701522827148,0,0
1.7782592398002688863e-05,2.9952579885703314311,0.099450932726137183937,0.18974058736049165264,5.5176622179321705985,0.89273773108897414019,2.8645140283984251717,0.18680669358089402321,84,84,-0.0091916834935545921326,0,0
1.788184299831882231e-05,2.9948892734378662617,0.099473860185224485808,0.19000478646470458921,5.5177474028187294408,0.89276063769190527886,2.8645140183286268432,0.18684687542214264977,85,85,-0.0091096153482794761658,0,0
1.7988935863316222823e-05,2.9944915776684619679,0.099498599544677462925,0.19028863048966745963,5.5178393573254860272,0.89278536352494497486,2.8645140337686574306,0.18689023006741531385,86,86,-0.0090275462716817855835,0,0
1.810449030920842722e-05,2.9940625944061700636,0.099525294200051087068,0.19059348352856858577,5.5179385499586475206,0.89281203459729485683,2.8645140245479172592,0.18693701066439383229,87,87,-0.0089454781264066696167,0,0
1.8229174504304142154e-05,2.9935999185105357512,0.099554098387821629568,0.19092079000463010874,5.5180456203209704569,0.89284082233893968805,2.8645140410411946696,0.18698748486500030297,88,88,-0.0088634090498089790344,0,0
1.8363709315616957678e-05,2.9931008789014454941,0.099585179014745783821,0.19127207731185638662,5.5181611245176425129,0.89287187620851637959,2.8645140329757650122,0.18704194687456657253,89,89,-0.0087813409045338630676,0,0
1.8508872452276269494e-05,2.9925626793453425911,0.099618715659480036595,0.19164895821614849614,5.5182857969289376143,0.89290539300841675896,2.8645140508892321662,0.18710070857235336361,90,90,-0.0086992718279361724854,0,0
