"epsilon","mach_number","pressure","rad_temp","rho","rhoE","rhou","temperature","GlobalNodeId","PedigreeNodeId","Points:0","Points:1","Points:2"
1.6530991347728451563e-05,2.9999333041959745927,0.09916087614956209384,0.18631001328360621838,5.5165846410282819434,0.89244788559088195079,2.8645140216307733994,0.18629824024681465588,1,1,-0.016003377735614776611,0,0
1.6531020461048147254e-05,2.9999313714688349286,0.099160994773303604011,0.18631009531285785963,5.5165850373853642097,0.89244799494649584837,2.8645139924621343397,0.18629844972564099659,2,2,-0.015889069065451622009,0,0
1.653110371607452824e-05,2.9999294840126085049,0.099161112892637973126,0.18631032989036991343,5.5165855192109409799,0.89244812231526748914,2.8645140216309479264,0.1862986553704574777,3,3,-0.015774758532643318176,0,0
1.6531241259386917096e-05,2.9999275417118749232,0.099161232080785810528,0.1863107174274090394,5.5165859177950338221,0.89244823221710645189,2.8645139924619735794,0.1862988658343896764,4,4,-0.015660447999835014343,0,0
1.6531433935507702852e-05,2.9999255954327783691,0.099161353816750619217,0.18631126030057920673,5.516586413170211145,0.89244836318438058864,2.8645140216311681947,0.18629907781629020946,5,5,-0.015546138398349285126,0,0
1.6531683294979393077e-05,2.9999235445003100686,0.099161479708028466007,0.18631196287445800364,5.5165868367530856986,0.892448479770600267,2.8645139924618487903,0.18629930002941330613,6,6,-0.015431828796863555908,0,0
1.6531991593041240089e-05,2.9999214398841158591,0.099161611226900689409,0.18631283149766983409,5.5165873685554043249,0.89244862050163309419,2.8645140216314692871,0.18629952916066924717,7,7,-0.015317519195377826691,0,0
1.6532361816020077087e-05,2.9999191790572421468,0.099161750095228332058,0.18631387457695991472,5.516587840417226829,0.89244875004462453916,2.8645139924617479821,0.18629977412388371016,8,8,-0.015203209593892097473,0,0
1.6532797698109620712e-05,2.9999168118159853513,0.099161897857705613712,0.1863151026240917052,5.5165884326234202462,0.89244890699813717028,2.8645140216318658588,0.18630003173277079331,9,9,-0.01508889906108379364,0,0
1.6533303766332318194e-05,2.9999142324716951968,0.099162056431709472148,0.18631652838203480171,5.5165889777381877934,0.89244905622401504708,2.8645139924617017968,0.1863003112440350939,10,10,-0.014974589459598064423,0,0
1.653388537614775526e-05,2.9999114883195630021,0.099162227516621237466,0.18631816692466574015,5.5165896566252374811,0.89244923647582918846,2.8645140216323885518,0.18630060974243878302,11,11,-0.014860279858112335205,0,0
1.6534548776187630242e-05,2.9999084691152355653,0.099162413311693564655,0.18632003583836653782,5.5165903028931095875,0.89244941289638501924,2.8645139924617488703,0.18630093697899996474,12,12,-0.014745970256626605988,0,0
1.6535301164373228432e-05,2.9999052182073606687,0.099162615760551076072,0.18632215537914670334,5.5165910983170807214,0.89244962448385789511,2.8645140216330937655,0.18630129046654053671,13,13,-0.014631659723818302155,0,0
1.6536150774600177595e-05,2.9999016192490044475,0.099162837440141662904,0.18632454871563741694,5.5165918779053564336,0.89244983675769973264,2.8645139924619154037,0.18630168061841156923,14,14,-0.014517350122332572937,0,0
1.6537106956052627702e-05,2.9998977100076547053,0.099163080639606257516,0.18632724215102292042,5.5165928247213997793,0.8924500890620249427,2.8645140216340823081,0.18630210555303433617,15,15,-0.014403040520846843719,0,0
1.6538180285067903942e-05,2.9998933662599176486,0.099163348423460820347,0.18633026543629982452,5.5165937755803371445,0.89245034740261031114,2.8645139924623124195,0.1863025765387602839,16,16,-0.014288730919361114502,0,0
1.6539382671446924145e-05,2.9998886182904929143,0.099163643544179377876,0.18633365206743657261,5.516594915271975097,0.89245065158740843891,2.8645140216354976204,0.18630309250614915384,17,17,-0.014174420386552810669,0,0
1.6540727499912861591e-05,2.9998833319149955656,0.099163969682959235419,0.18633743968097743471,5.5165960828969469176,0.89245096823737291025,2.8645139924629998696,0.18630366580495660855,18,18,-0.014060110785067081451,0,0
1.6542229768487515929e-05,2.9998775276771585396,0.099164330195526326217,0.18634167044027280524,5.516597465492265151,0.89245133776435259243,2.8645140216374977982,0.18630429642314608185,19,19,-0.013945801183581352234,0,0
1.6543906265329278419e-05,2.9998710589401009763,0.099164729534087864282,0.18634639152918083815,5.5165989050159804918,0.89245172755846413626,2.8645139924642060159,0.1863049980624989499,20,20,-0.013831491582095623016,0,0
1.6545775745733446301e-05,2.999863933787108472,0.099165171826136766509,0.18635165564516967263,5.5166005913795297388,0.89245217880411698008,2.8645140216404456623,0.18630577206377285648,21,21,-0.013717181049287319183,0,0
1.6547859151757654181e-05,2.9998559901163144303,0.09916566248150956997,0.18635752161115179404,5.5166023700898900728,0.89245265984677601967,2.8645139924662679221,0.18630663380801756879,22,22,-0.013602871447801589966,0,0
1.655017983618005853e-05,2.9998472202450230384,0.099166206604328788199,0.18636405499790603679,5.5166044346955027677,0.8924532128484760074,2.8645140216447360082,0.1863075863478808325,23,23,-0.013488561846315860748,0,0
1.6552763834269896073e-05,2.9998374429356928772,0.099166810789494477807,0.18637132887913074319,5.5166066350954352515,0.89245380733694978925,2.8645139924696305656,0.18630864714247211134,24,24,-0.013374252244830131531,0,0
1.6555640145182616682e-05,2.9998266306973144779,0.099167481368329743474,0.18637942461113266024,5.5166091694077872276,0.8924544867026453776,2.8645140216510180942,0.1863098213955393101,25,25,-0.013259941712021827698,0,0
1.6558841067598785977e-05,2.9998145786619185849,0.099168226399354131306,0.18638843276217775813,5.516611892956404084,0.892455221933498688,2.8645139924750671057,0.18631112913267119935,26,26,-0.01314563211053609848,0,0
1.6562402551647809594e-05,2.999801234567574415,0.099169053748781599289,0.1863984540839255799,5.5166150095743144988,0.89245605795630655876,2.8645140216603506289,0.18631257824803304501,27,27,-0.013031322509050369263,0,0
1.6566364613027511384e-05,2.9997863643942164202,0.099169973281043363733,0.18640960065327250028,5.5166183812789162388,0.89245696756071868361,2.8645139924836824363,0.18631419193385861943,28,28,-0.01291701197624206543,0,0
1.6570771771746451177e-05,2.9997698850021126127,0.099170994776007159732,0.18642199707776013762,5.5166222190284353033,0.89245799758899579945,2.86451402167419511,0.18631598143858824068,29,29,-0.012802702374756336212,0,0
1.657567356288038401e-05,2.9997515264219773989,0.099172130325522328542,0.18643578189653356447,5.5166263930965326878,0.89245912305303365386,2.864513992497240924,0.18631797386012360906,30,30,-0.012688392773270606995,0,0
1.6581125082352074837e-05,2.9997311671098363384,0.099173392090100148666,0.18645110907110318266,5.516631123305210771,0.89246039317796455048,2.8645140216949513956,0.1863201846196496092,31,31,-0.012574083171784877777,0,0
1.6587187616839140457e-05,2.9997084927695003564,0.099174794908752694766,0.18646814970195552119,5.5166362901111627437,0.89246178571643364208,2.8645139925184857077,0.18632264563196732077,32,32,-0.012459772638976573944,0,0
1.6593929321646826137e-05,2.9996833341685289476,0.099176353898976291057,0.18648709386676254329,5.5166421243462773205,0.89246335285334033038,2.8645140217261402249,0.18632537750107128205,33,33,-0.012345463037490844727,0,0
1.6601425997651063571e-05,2.9996553223504123231,0.099178087288373628638,0.18650815272072310269,5.5166485190284451079,0.89246507572198086056,2.8645139925515636925,0.18632841808316571997,34,34,-0.012231153436005115509,0,0
1.66097619322813464e-05,2.9996242289358994171,0.099180013863162039267,0.18653156075669752312,5.516655718649796647,0.89246701017943064205,2.8645140217730897803,0.18633179441233352347,35,35,-0.012116843834519386292,0,0
1.6619030858004233005e-05,2.9995896175568725894,0.099182156031585214095,0.18655757837058209447,5.5166636317265504985,0.89246914152981682289,2.8645139926028768684,0.18633555167464310731,36,36,-0.012002533301711082458,0,0
1.6629336994788031505e-05,2.9995511865421571329,0.09918453712786236276,0.18658649463189244666,5.516672519685485554,0.89247153018246860867,2.8645140218439912871,0.18633972487504688043,37,37,-0.011888223700225353241,0,0
1.6640796232802198515e-05,2.9995084163743590544,0.099187184719247936671,0.18661863041028908805,5.5166823101695197096,0.89247416658841172143,2.8645139926822142939,0.1863443682444146654,38,38,-0.011773914098739624023,0,0
1.6653537423812298456e-05,2.9994609146279302969,0.099190127774466896327,0.18665434176063508409,5.5166932855868511254,0.89247711679673613627,2.8645140219512708057,0.18634952666228693507,39,39,-0.011659604497253894806,0,0
1.6667703840855577869e-05,2.9994080592118752548,0.099193400228593284207,0.18669402372284502056,5.5167053971907993315,0.89248037761132303913,2.8645139928045879607,0.18635526552297379532,40,40,-0.011545293964445590973,0,0
1.6683454777219202151e-05,2.9993493453900827994,0.099197038027615563882,0.18673811444186394493,5.516718953372992118,0.89248402206502475131,2.864514022113954006,0.1863616419330448859,41,41,-0.011430984362959861755,0,0
1.6700967348301548376e-05,2.9992840245260516951,0.099201082968146864216,0.18678709976953297711,5.5167339345383474836,0.89248805480474036056,2.8645139929930114597,0.18636873506791470922,42,42,-0.011316674761474132538,0,0
1.6720438470658272539e-05,2.9992114529689248847,0.09920557963300241644,0.18684151825621031495,5.5167506812452398179,0.89249255750819456168,2.8645140223608707153,0.1863766171682358086,43,43,-0.01120236515998840332,0,0
1.6742087086626762166e-05,2.9991307259585604506,0.099210579526312722698,0.18690196669890885017,5.5167692099004872475,0.89249754450694607222,2.8645139932826757523,0.1863853844249626357,44,44,-0.011088054627180099487,0,0
1.6766156612997606853e-05,2.9990410281048176522,0.099216137918908320348,0.18696910615553813395,5.5167899008728848997,0.89250310817663791596,2.8645140227361989282,0.18639512780527844882,45,45,-0.01097374502569437027,0,0
1.6792917687947450477e-05,2.9989412620408262278,0.099222318303815879026,0.18704366859576315729,5.5168128150391817499,0.89250927480948194503,2.8645139937273875752,0.18640596451222471441,46,46,-0.010859435424208641052,0,0
1.6822671199963548384e-05,2.9988304001539907162,0.099229189175178603155,0.18712646409803615488,5.5168383820297988152,0.89251615001670314697,2.8645140233072643454,0.18641800867883551174,47,47,-0.010745125822722911835,0,0
1.6855751680035364995e-05,2.9987071074902691414,0.099236828834477916472,0.18721838876463120505,5.5168667176603607416,0.89252377486401757167,2.8645139944095152629,0.18643140345838071781,48,48,-0.010630815289914608002,0,0
1.6892531047454962693e-05,2.9985700943124600215,0.099245322132778174273,0.18732043326102967851,5.5168983125085819808,0.89253227133477874844,2.8645140241767799161,0.186446291635235184,49,49,-0.010516505688428878784,0,0
1.6933422799088229237e-05,2.9984177326540435438,0.099254765664740035591,0.18743369214862673489,5.5169333502733657326,0.89254169874464872603,2.8645139954549292405,0.18646284841415311506,50,50,-0.010402196086943149567,0,0
1.6978886640731997407e-05,2.9982484091807926063,0.099265264511416692605,0.1875593739086555134,5.5169723969293933408,0.89255219932579921149,2.8645140255014505115,0.18648125200852391781,51,51,-0.010287885554134845734,0,0
1.7029433660881045218e-05,2.9980601346679871533,0.099276937867393416637,0.18769881181680181381,5.5170157200651646079,0.89256385494036749595,2.8645139970560058451,0.18650171721226829757,52,52,-0.010173575952649116516,0,0
1.7085632055837332165e-05,2.9978508965217400828,0.099289915830582872736,0.18785347554986667196,5.5170639789212865267,0.8925768328607042168,2.8645140275205647207,0.18652446604110509143,53,53,-0.010059266351163387299,0,0
1.7148113519249497577e-05,2.9976182603036236607,0.099304345518055003872,0.18802498366452283229,5.5171175447698299621,0.89259124280530410811,2.864513999506813402,0.18654976218940366728,54,54,-0.0099449567496776580811,0,0
1.7217580317841657442e-05,2.9973597211275890828,0.099320387960601927424,0.18821511680120878163,5.5171771922166321644,0.89260728300828773296,2.8645140305992158325,0.18657788181836573727,55,55,-0.009830646216869354248,0,0
1.7294813182005965393e-05,2.9970722961775431159,0.099338224775507716346,0.18842583171974522371,5.5172434206987812644,0.89262509760659169977,2.8645140032564726518,0.18660914902331113274,56,56,-0.0097163366153836250305,0,0
1.7380680048919706606e-05,2.9967528740320013014,0.099358055237561290762,0.18865927597524009829,5.5173171475214051185,0.89264492311413978776,2.8645140352946243389,0.18664390688507273564,57,57,-0.009602027013897895813,0,0
1.7476145805901250983e-05,2.996397796910176492,0.099380103592714374994,0.18891780328876200956,5.5173990305688800362,0.89266694619536712807,2.8645140089909704173,0.18668255410169157238,58,58,-0.0094877174124121665955,0,0
1.7582283091326414269e-05,2.9960032067889894591,0.099404616394343878194,0.1892039893561518471,5.5174901636590352183,0.89269145068720179292,2.8645140424570478821,0.18672551644669788118,59,59,-0.0093734068796038627625,0,0
1.7700284324074826105e-05,2.9955646158705766524,0.099431870561120044849,0.18952064807443114169,5.5175914005873849533,0.89271867580165187306,2.8645140177577248508,0.18677328475417134812,60,60,-0.0092590972781181335449,0,0
1.7831475043070356748e-05,2.9950772481456922058,0.0994621710884030924,0.1898708478397668209,5.517704053519868701,0.89274896387271129861,2.8645140533838469032,0.18682638696107584098,61,61,-0.0091447876766324043274,0,0
1.79773287562692247e-05,2.9945355963020632295,0.099495859977505846095,0.19025792779626246598,5.5178292185193376085,0.89278261904018263451,2.8645140311553154433,0.18688542767743687723,62,62,-0.0090304780751466751099,0,0
1.8139483410466103057e-05,2.9939337571601960519,0.099533314458070801245,0.19068551357570745486,5.5179684778718529614,0.89282005594079283384,2.8645140700537994327,0.18695106103067435366,63,63,-0.0089161675423383712769,0,0
1.8319759715870276382e-05,2.9932649729415587991,0.099574956945331874469,0.19115753228479095971,5.5181232272795055493,0.89286165893655178305,2.8645140516227263205,0.18702403210508269926,64,64,-0.0088018579408526420593,0,0
1.8520181473351471417e-05,2.992521958771499957,0.099621253941119494724,0.19167822614817384141,5.5182953832315719822,0.8929079320215579374,2.8645140954840297987,0.1871051508554142373,65,65,-0.0086875483393669128418,0,0
1.8742998180396162091e-05,2.991696425910946644,0.099672727212050421519,0.19225216443000603395,5.5184867120948766228,0.89295935867183784396,2.864514082879523027,0.18719533576383784457,66,66,-0.0085732387378811836243,0,0
1.8990710108275484717e-05,2.9907793993088849227,0.099729953575698193635,0.19288425291021843444,5.5186995439060497759,0.89301655330331652927,2.864514134273409951,0.18729558914949093196,67,67,-0.0084589282050728797913,0,0
1.9266096177518882295e-05,2.9897607200974740671,0.099793577537304029024,0.19357974041778355789,5.5189361036514616998,0.89308012183661966699,2.8645141305950612143,0.18740704346873371389,68,68,-0.0083446186035871505737,0,0
1.9572244878407449894e-05,2.9886293510218222558,0.09986431221525238211,0.19434422159758124593,5.5191992331895418644,0.89315081512088567717,2.8645141934273947726,0.18753093841865350888,69,69,-0.0082303090021014213562,0,0
1.9912588625262340791e-05,2.98737285524967211,0.099942953728640024358,0.19518363534707583451,5.5194917250867865377,0.89322939032622894473,2.8645142034046773283,0.18766867040014462154,70,70,-0.0081159994006156921387,0,0
2.0290941856769609253e-05,2.9859776874737202768,0.10003038357424297311,0.19610425808083109533,5.5198170547941689534,0.89331676684579519598,2.8645142836104509065,0.18782177189801008144,71,71,-0.0080016888678073883057,0,0
2.0711543345235701989e-05,2.9844286459667443978,0.10012758512414511591,0.19711269130234471136,5.520178717499260479,0.89341388865087645321,2.8645143144511004962,0.18799196473852680667,72,72,-0.0078873792663216590881,0,0
2.1179103105653946651e-05,2.9827091473423177348,0.1002356478368935655,0.19821584276189013751,5.5205809732012509627,0.8935218833041115305,2.8645144210432129661,0.18818114232810881359,73,73,-0.0077730691991746425629,0,0
2.1698854455887532508e-05,2.9808006489067015998,0.10035578630581093451,0.19942090088925290559,5.5210281871573503309,0.89364192543743692365,2.8645144837171296892,0.18839142746995943267,74,74,-0.0076587595976889133453,0,0
2.2276611712340393332e-05,2.9786829056333119503,0.10048934677205720312,0.20073530208943424213,5.5215255911513372311,0.89377539965748931117,2.8645146303708890478,0.18862515815758809645,75,75,-0.0075444495305418968201,0,0
2.2918834176822767301e-05,2.9763333603980224318,0.10063782926268260987,0.20216669100005460469,5.5220786282602647432,0.89392376533383888226,2.8645147415486400533,0.18888495087029399944,76,76,-0.0074301399290561676025,0,0
2.3632697008729382676e-05,2.9737273828975183676,0.10080289697506235325,0.2037228738073023071,5.5226937344282589493,0.89408872435957176261,2.8645149489893513284,0.18917369074606646406,77,77,-0.0073158298619091510773,0,0
2.4426169759794647462e-05,2.9708376265584761633,0.10098640216159240901,0.20541176530790550281,5.5233776884607657109,0.89427208746438013875,2.8645151339596881535,0.18949460145274726885,78,78,-0.0072015202604234218597,0,0
2.5308103292107572837e-05,2.9676342512354287884,0.10119039907517368704,0.2072413304612416296,5.5241384190441218394,0.89447594801617313909,2.8645154335478539842,0.18985124070261888418,79,79,-0.0070872101932764053345,0,0
2.628832599534617549e-05,2.9640842478149296291,0.10141717439644824805,0.20921952178235245223,5.5249843610916489212,0.89470255009624088949,2.864515730592327003,0.19024757799132158143,80,80,-0.0069729005917906761169,0,0
2.7377750166149047008e-05,2.9601516500104061436,0.10166926456925752531,0.21135421395830691904,5.5259252946430628128,0.89495446979900394879,2.8645161696858738587,0.19068799655386534098,81,81,-0.0068585905246436595917,0,0
2.8588489619090721989e-05,2.9557968314204718929,0.10194949172657029324,0.21365313759262691273,5.5269717089370740126,0.89523448531641913739,2.8645166366070151653,0.19117738046646026717,82,82,-0.0067442809231579303741,0,0
2.9933989545755062655e-05,2.9509767171820833198,0.10226098640092928793,0.21612381388216253542,5.5281356812507587151,0.89554576752060333078,2.8645172865381258731,0.19172112426060194945,83,83,-0.0066299708560109138489,0,0
3.1429169853171966687e-05,2.9456440640925074526,0.10260723008324899863,0.21877349236429768919,5.5294302503423837791,0.89589175228677808693,2.8645180103429201957,0.19232523107205240498,84,84,-0.0065156612545251846313,0,0
3.3090583153062138125e-05,2.9397476910010826856,0.10299208445847125859,0.22160909355232172313,5.5308703453218344137,0.89627634253338084314,2.8645189782065392237,0.19299633118861767023,85,85,-0.0064013511873781681061,0,0
3.4936588789392152639e-05,2.9332317612635807613,0.10341984191606964916,0.22463715836194703135,5.5324721703498749292,0.8967037829395213544,2.8645200893618993909,0.19374179306283556556,86,86,-0.0062870415858924388885,0,0
3.6987544212339414789e-05,2.9260360623223333754,0.10389526261720193057,0.22786380567124916996,5.5342541961463931344,0.8971788760710687205,2.864521535288381493,0.19456975200299661544,87,87,-0.0061727315187454223633,0,0
3.9266015210478350547e-05,2.9180953218987166764,0.10442363444156925467,0.23129469921672574095,5.536236557949170134,0.89770685947083572742,2.8645232285037312003,0.19548923586318861512,88,88,-0.0060584219172596931458,0,0
4.1797006391592929624e-05,2.9093395829099399919,0.10501081930039471435,0.23493502429400972553,5.5384421253186042478,0.89829363900656622466,2.8645253906914995845,0.19651020477779077011,89,89,-0.0059441118501126766205,0,0
4.460821346894659089e-05,2.8996936008102607296,0.10566332409863284092,0.23878947447377166236,5.5408959151346151017,0.89894566794227503959,2.8645279548375959244,0.19764369306482648669,90,90,-0.005829802248626947403,0,0
